SpectraSuite Data File
++++++++++++++++++++++++++++++++++++
Date: Fri Jul 31 04:49:12 CEST 2009
User: hertz
Dark Spectrum Present: No
Reference Spectrum Present: No
Number of Sampled Component Spectra: 1
Spectrometers: USB4C01162
Integration Time (usec): 100000 (USB4C01162)
Spectra Averaged: 1 (USB4C01162)
Boxcar Smoothing: 0 (USB4C01162)
Correct for Electrical Dark: No (USB4C01162)
Strobe/Lamp Enabled: No (USB4C01162)
Correct for Detector Non-linearity: No (USB4C01162)
Correct for Stray Light: No (USB4C01162)
Number of Pixels in Processed Spectrum: 3648
>>>>>Begin Processed Spectral Data<<<<<
178,80	1466,35
179,01	1466,35
179,23	1466,35
179,44	1497,07
179,66	1447,91
179,88	1820,64
180,09	1814,50
180,31	1751,01
180,52	1968,10
180,74	1640,42
180,95	1714,15
181,17	1794,02
181,38	2047,97
181,60	1619,94
181,81	1556,46
182,03	1769,44
182,24	1839,08
182,46	1765,35
182,67	1851,36
182,89	2009,06
183,10	1964,00
183,32	1800,16
183,53	1841,12
183,75	2287,58
183,96	1943,52
184,18	1914,85
184,40	1888,23
184,61	2131,94
184,83	1947,62
185,04	1865,70
185,26	1968,10
185,47	2099,17
185,69	2019,30
185,90	1837,03
186,12	1816,55
186,33	1982,43
186,55	1943,52
186,76	1859,56
186,98	1877,99
187,19	2045,92
187,41	2103,26
187,62	1802,21
187,84	1912,80
188,05	2238,43
188,27	2127,84
188,48	1892,32
188,70	1871,84
188,91	2007,01
189,13	1826,79
189,34	1857,51
189,56	1886,18
189,77	1972,19
189,99	1920,99
190,20	1943,52
190,42	1728,49
190,63	2097,12
190,85	2037,73
191,06	1953,76
191,27	1843,17
191,49	1898,47
191,70	1943,52
191,92	1896,42
192,13	1902,56
192,35	2088,93
192,56	1984,48
192,78	1939,43
192,99	1849,32
193,21	1966,05
193,42	1978,34
193,64	1968,10
193,85	1912,80
194,07	2222,05
194,28	2039,78
194,50	1968,10
194,71	1925,09
194,93	2152,42
195,14	2095,07
195,36	1939,43
195,57	1888,23
195,78	2170,85
196,00	2047,97
196,21	2035,68
196,43	1935,33
196,64	1839,08
196,86	2084,83
197,07	1900,52
197,29	1789,92
197,50	2164,70
197,72	2009,06
197,93	1902,56
198,15	1939,43
198,36	2254,81
198,57	2058,21
198,79	1871,84
199,00	1933,28
199,22	1931,23
199,43	2056,16
199,65	1918,95
199,86	1959,91
200,08	2103,26
200,29	2199,52
200,51	1961,95
200,72	1769,44
200,93	1986,53
201,15	2154,46
201,36	1894,37
201,58	1916,90
201,79	1869,80
202,01	2150,37
202,22	1890,28
202,44	2011,11
202,65	2105,31
202,86	2086,88
203,08	1869,80
203,29	1896,42
203,51	2072,54
203,72	2035,68
203,94	1935,33
204,15	1794,02
204,36	1859,56
204,58	2074,59
204,79	1910,75
205,01	1845,22
205,22	2138,08
205,44	2013,15
205,65	1847,27
205,86	1808,36
206,08	2097,12
206,29	2043,87
206,51	1814,50
206,72	1916,90
206,94	2136,03
207,15	2138,08
207,36	1818,60
207,58	1959,91
207,79	2050,02
208,01	2095,07
208,22	1912,80
208,43	1822,69
208,65	2166,75
208,86	2090,98
209,08	1910,75
209,29	1943,52
209,51	2109,41
209,72	2103,26
209,93	1966,05
210,15	1869,80
210,36	2002,91
210,58	1957,86
210,79	1855,46
211,00	1931,23
211,22	2058,21
211,43	2490,33
211,65	1914,85
211,86	1902,56
212,07	2197,47
212,29	1998,82
212,50	1920,99
212,72	1834,98
212,93	2205,66
213,14	2054,11
213,36	2017,25
213,57	1916,90
213,79	1992,67
214,00	2037,73
214,21	1972,19
214,43	1861,60
214,64	2152,42
214,85	2146,27
215,07	1877,99
215,28	1892,32
215,50	2189,28
215,71	2086,88
215,92	1845,22
216,14	1984,48
216,35	2088,93
216,57	2115,55
216,78	1945,57
216,99	1843,17
217,21	2066,40
217,42	1970,15
217,63	1837,03
217,85	1957,86
218,06	2115,55
218,28	2154,46
218,49	1994,72
218,70	1824,74
218,92	2234,33
219,13	2074,59
219,34	1984,48
219,56	1783,78
219,77	2054,11
219,98	2004,96
220,20	1902,56
220,41	1916,90
220,63	2072,54
220,84	2138,08
221,05	1978,34
221,27	1851,36
221,48	2179,04
221,69	1869,80
221,91	1839,08
222,12	1964,00
222,33	2052,06
222,55	1984,48
222,76	1894,37
222,97	1961,95
223,19	2072,54
223,40	2039,78
223,62	1910,75
223,83	1986,53
224,04	2195,42
224,26	1976,29
224,47	1859,56
224,68	1892,32
224,90	2103,26
225,11	2166,75
225,32	1888,23
225,54	1814,50
225,75	2072,54
225,96	1949,67
226,18	1841,12
226,39	1898,47
226,60	1992,67
226,82	2121,70
227,03	1886,18
227,24	1949,67
227,46	2074,59
227,67	2111,46
227,88	1902,56
228,10	2015,20
228,31	2127,84
228,52	2045,92
228,74	1837,03
228,95	1927,14
229,16	2021,35
229,38	2039,78
229,59	1875,94
229,80	1951,71
230,02	2170,85
230,23	2172,89
230,44	1976,29
230,66	1882,08
230,87	2160,61
231,08	2086,88
231,29	2011,11
231,51	2064,35
231,72	2220,00
231,93	2074,59
232,15	1939,43
232,36	1949,67
232,57	2164,70
232,79	2088,93
233,00	1882,08
233,21	1912,80
233,43	2166,75
233,64	1914,85
233,85	1859,56
234,07	1865,70
234,28	2070,50
234,49	2088,93
234,70	1859,56
234,92	1810,40
235,13	2107,36
235,34	2246,62
235,56	1990,63
235,77	1855,46
235,98	2170,85
236,20	2121,70
236,41	1904,61
236,62	1884,13
236,83	2142,18
237,05	2066,40
237,26	1925,09
237,47	1974,24
237,69	2181,09
237,90	2031,58
238,11	1945,57
238,32	1834,98
238,54	2033,63
238,75	2246,62
238,96	1947,62
239,18	1882,08
239,39	2220,00
239,60	2115,55
239,81	1972,19
240,03	1955,81
240,24	1998,82
240,45	2047,97
240,66	1906,66
240,88	1861,60
241,09	2131,94
241,30	1974,24
241,52	1902,56
241,73	1931,23
241,94	2322,40
242,15	2068,45
242,37	1875,94
242,58	2088,93
242,79	2203,61
243,00	1961,95
243,22	1898,47
243,43	1931,23
243,64	1990,63
243,85	2099,17
244,07	1982,43
244,28	1933,28
244,49	2222,05
244,71	2078,69
244,92	2107,36
245,13	1898,47
245,34	2271,20
245,56	2021,35
245,77	1996,77
245,98	1970,15
246,19	2133,98
246,41	2086,88
246,62	1990,63
246,83	1853,41
247,04	2039,78
247,26	2185,18
247,47	2129,89
247,68	2011,11
247,89	2269,15
248,11	2201,57
248,32	2041,82
248,53	1961,95
248,74	2424,80
248,95	2256,86
249,17	2117,60
249,38	1970,15
249,59	2291,68
249,80	2377,69
250,02	2015,20
250,23	1974,24
250,44	2326,49
250,65	2248,67
250,87	2148,32
251,08	2174,94
251,29	2410,46
251,50	2519,00
251,71	2502,62
251,93	2830,29
252,14	3672,01
252,35	5283,76
252,56	7528,33
252,78	12289,86
252,99	19734,23
253,20	29267,52
253,41	35818,97
253,62	39794,08
253,84	39732,64
254,05	33762,81
254,26	24798,85
254,47	16443,14
254,69	9643,88
254,90	5017,52
255,11	3020,75
255,32	2332,64
255,53	2660,31
255,75	2256,86
255,96	2076,64
256,17	2123,74
256,38	2379,74
256,59	2156,51
256,81	1980,39
257,02	1992,67
257,23	2039,78
257,44	2127,84
257,65	2023,39
257,87	2072,54
258,08	2195,42
258,29	2045,92
258,50	2050,02
258,71	2000,87
258,93	2217,95
259,14	2156,51
259,35	2019,30
259,56	1992,67
259,77	2389,98
259,99	2119,65
260,20	2025,44
260,41	2138,08
260,62	2320,35
260,83	2097,12
261,04	2011,11
261,26	2019,30
261,47	2164,70
261,68	2054,11
261,89	1863,65
262,10	1959,91
262,32	2097,12
262,53	2052,06
262,74	1925,09
262,95	1966,05
263,16	2152,42
263,37	2174,94
263,59	1941,47
263,80	1927,14
264,01	2248,67
264,22	2099,17
264,43	2058,21
264,64	1998,82
264,86	2338,78
265,07	2445,27
265,28	2162,66
265,49	2129,89
265,70	2332,64
265,91	2176,99
266,13	2002,91
266,34	1925,09
266,55	2228,19
266,76	2123,74
266,97	1966,05
267,18	2082,78
267,40	2189,28
267,61	2234,33
267,82	2013,15
268,03	1894,37
268,24	2183,13
268,45	2215,90
268,66	1902,56
268,88	2000,87
269,09	1974,24
269,30	2064,35
269,51	1976,29
269,72	1957,86
269,93	2211,81
270,14	2211,81
270,36	2004,96
270,57	2050,02
270,78	2160,61
270,99	2301,92
271,20	2066,40
271,41	1978,34
271,62	2256,86
271,84	2043,87
272,05	1937,38
272,26	1976,29
272,47	2349,02
272,68	2084,83
272,89	2009,06
273,10	1943,52
273,31	2072,54
273,53	2117,60
273,74	2129,89
273,95	2084,83
274,16	2072,54
274,37	2015,20
274,58	2095,07
274,79	2068,45
275,00	2097,12
275,22	2211,81
275,43	2131,94
275,64	2113,50
275,85	2158,56
276,06	2265,05
276,27	2238,43
276,48	2078,69
276,69	2050,02
276,90	2033,63
277,12	2064,35
277,33	2039,78
277,54	2281,44
277,75	2230,24
277,96	2062,30
278,17	2148,32
278,38	2226,14
278,59	2191,33
278,80	2101,22
279,02	2115,55
279,23	2306,01
279,44	2174,94
279,65	2025,44
279,86	2127,84
280,07	2310,11
280,28	2195,42
280,49	2242,53
280,70	2189,28
280,91	2459,61
281,12	2109,41
281,34	2095,07
281,55	2035,68
281,76	2142,18
281,97	2203,61
282,18	2031,58
282,39	2035,68
282,60	2160,61
282,81	2281,44
283,02	2000,87
283,23	2002,91
283,44	2144,22
283,66	2072,54
283,87	2226,14
284,08	2066,40
284,29	2213,85
284,50	2179,04
284,71	2011,11
284,92	2037,73
285,13	2281,44
285,34	2068,45
285,55	2031,58
285,76	2058,21
285,97	2129,89
286,18	2166,75
286,39	2017,25
286,61	2140,13
286,82	2158,56
287,03	2258,91
287,24	2072,54
287,45	2127,84
287,66	2152,42
287,87	1992,67
288,08	2140,13
288,29	2080,74
288,50	2228,19
288,71	2226,14
288,92	2271,20
289,13	2201,57
289,34	2344,92
289,55	2215,90
289,76	2064,35
289,97	2226,14
290,18	2451,42
290,40	2125,79
290,61	2095,07
290,82	2007,01
291,03	2166,75
291,24	2142,18
291,45	2131,94
291,66	2093,02
291,87	2228,19
292,08	2076,64
292,29	2185,18
292,50	2093,02
292,71	2314,20
292,92	2222,05
293,13	2279,39
293,34	2183,13
293,55	2316,25
293,76	2289,63
293,97	2205,66
294,18	2103,26
294,39	2179,04
294,60	2144,22
294,81	2140,13
295,02	2084,83
295,23	2285,53
295,44	2224,09
295,65	2228,19
295,86	2426,84
296,07	2568,15
296,28	2723,80
296,49	2695,13
296,70	2676,70
296,91	2824,15
297,12	2727,89
297,34	2643,93
297,55	2267,10
297,76	2367,45
297,97	2279,39
298,18	2107,36
298,39	2109,41
298,60	2303,96
298,81	2267,10
299,02	2129,89
299,23	2064,35
299,44	2181,09
299,65	2207,71
299,86	2160,61
300,07	2027,49
300,28	2213,85
300,49	2115,55
300,70	2144,22
300,91	2199,52
301,12	2396,12
301,33	2330,59
301,54	2367,45
301,75	2392,03
301,96	2783,19
302,17	2451,42
302,38	2502,62
302,59	2512,86
302,80	2551,77
303,01	2359,26
303,22	2258,91
303,42	2093,02
303,63	2250,72
303,84	2242,53
304,05	2086,88
304,26	2097,12
304,47	2240,48
304,68	2166,75
304,89	2213,85
305,10	2136,03
305,31	2191,33
305,52	2242,53
305,73	2240,48
305,94	2121,70
306,15	2271,20
306,36	2168,80
306,57	2181,09
306,78	2078,69
306,99	2027,49
307,20	2146,27
307,41	2099,17
307,62	2000,87
307,83	2129,89
308,04	2199,52
308,25	2086,88
308,46	2078,69
308,67	2240,48
308,88	2205,66
309,09	2103,26
309,30	2127,84
309,51	2076,64
309,72	2279,39
309,93	2070,50
310,13	2080,74
310,34	2531,29
310,55	2340,83
310,76	2123,74
310,97	2283,49
311,18	2527,19
311,39	2377,69
311,60	2602,97
311,81	3217,36
312,02	3964,87
312,23	4917,17
312,44	5502,89
312,65	6107,04
312,86	7405,46
313,07	6743,96
313,28	6188,96
313,49	5562,28
313,70	4919,22
313,90	4231,10
314,11	3336,14
314,32	2975,70
314,53	2691,03
314,74	2453,47
314,95	2172,89
315,16	2111,46
315,37	2320,35
315,58	2090,98
315,79	2179,04
316,00	2146,27
316,21	2265,05
316,42	2203,61
316,62	2154,46
316,83	2027,49
317,04	2244,57
317,25	2256,86
317,46	2111,46
317,67	2090,98
317,88	2168,80
318,09	2136,03
318,30	2009,06
318,51	1951,71
318,72	2269,15
318,93	2224,09
319,13	2107,36
319,34	2103,26
319,55	2340,83
319,76	2250,72
319,97	2023,39
320,18	2025,44
320,39	2187,23
320,60	2267,10
320,81	2015,20
321,02	2009,06
321,22	2193,37
321,43	2150,37
321,64	2217,95
321,85	1951,71
322,06	2293,72
322,27	2140,13
322,48	2111,46
322,69	1986,53
322,90	2035,68
323,11	2009,06
323,31	2074,59
323,52	2109,41
323,73	2084,83
323,94	2183,13
324,15	1998,82
324,36	2017,25
324,57	2252,77
324,78	2275,29
324,98	2082,78
325,19	2041,82
325,40	2430,94
325,61	2131,94
325,82	2136,03
326,03	2052,06
326,24	2277,34
326,45	1972,19
326,65	2074,59
326,86	2054,11
327,07	2095,07
327,28	2170,85
327,49	2113,50
327,70	1974,24
327,91	2080,74
328,12	2201,57
328,32	2115,55
328,53	2068,45
328,74	2205,66
328,95	2064,35
329,16	2052,06
329,37	2031,58
329,58	2197,47
329,78	1959,91
329,99	2047,97
330,20	2027,49
330,41	2072,54
330,62	2029,54
330,83	2146,27
331,04	2113,50
331,24	2179,04
331,45	2146,27
331,66	2119,65
331,87	2019,30
332,08	2195,42
332,29	2050,02
332,49	2037,73
332,70	2060,26
332,91	2265,05
333,12	2136,03
333,33	2181,09
333,54	2293,72
333,74	2539,48
333,95	2414,56
334,16	2621,40
334,37	2508,76
334,58	2557,91
334,79	2426,84
334,99	2273,25
335,20	2222,05
335,41	2125,79
335,62	2252,77
335,83	2123,74
336,04	2164,70
336,24	2308,06
336,45	2230,24
336,66	2109,41
336,87	2009,06
337,08	1970,15
337,29	2064,35
337,49	2146,27
337,70	1972,19
337,91	2080,74
338,12	1974,24
338,33	2148,32
338,53	2002,91
338,74	2201,57
338,95	2174,94
339,16	2019,30
339,37	2244,57
339,57	1976,29
339,78	2056,16
339,99	2039,78
340,20	1978,34
340,41	2080,74
340,61	2185,18
340,82	1939,43
341,03	1966,05
341,24	2195,42
341,45	1931,23
341,65	2138,08
341,86	1982,43
342,07	2398,17
342,28	2007,01
342,49	2011,11
342,69	2076,64
342,90	2131,94
343,11	2082,78
343,32	2019,30
343,53	2041,82
343,73	2045,92
343,94	2197,47
344,15	1996,77
344,36	1941,47
344,56	2013,15
344,77	2295,77
344,98	1972,19
345,19	2041,82
345,40	2056,16
345,60	2256,86
345,81	2007,01
346,02	1986,53
346,23	2228,19
346,43	2037,73
346,64	2101,22
346,85	2072,54
347,06	1992,67
347,27	2156,51
347,47	2064,35
347,68	1970,15
347,89	2127,84
348,10	2127,84
348,30	2111,46
348,51	2050,02
348,72	2115,55
348,93	2045,92
349,13	2009,06
349,34	1996,77
349,55	2150,37
349,76	2056,16
349,96	2037,73
350,17	2080,74
350,38	2119,65
350,59	2070,50
350,79	2103,26
351,00	2166,75
351,21	2156,51
351,42	2082,78
351,62	1966,05
351,83	2062,30
352,04	2080,74
352,25	2084,83
352,45	2088,93
352,66	1984,48
352,87	1968,10
353,08	2103,26
353,28	2047,97
353,49	2004,96
353,70	2058,21
353,90	2232,29
354,11	2076,64
354,32	2013,15
354,53	2105,31
354,73	2013,15
354,94	2203,61
355,15	1884,13
355,36	2195,42
355,56	2242,53
355,77	2078,69
355,98	2054,11
356,18	2080,74
356,39	1992,67
356,60	2090,98
356,81	2027,49
357,01	2164,70
357,22	2078,69
357,43	2099,17
357,63	1980,39
357,84	2275,29
358,05	2025,44
358,26	1992,67
358,46	1992,67
358,67	2133,98
358,88	1982,43
359,08	2121,70
359,29	2101,22
359,50	2187,23
359,71	1994,72
359,91	2021,35
360,12	2045,92
360,33	2107,36
360,53	2340,83
360,74	2097,12
360,95	2009,06
361,15	2140,13
361,36	1988,58
361,57	2115,55
361,78	2058,21
361,98	2127,84
362,19	2203,61
362,40	2144,22
362,60	1976,29
362,81	2193,37
363,02	2263,01
363,22	2213,85
363,43	2467,80
363,64	2791,38
363,84	3205,07
364,05	4366,27
364,26	6148,00
364,46	8689,53
364,67	11415,38
364,88	12971,83
365,08	14026,54
365,29	14233,38
365,50	13168,44
365,70	11247,44
365,91	9639,79
366,12	8388,48
366,32	7258,00
366,53	6510,49
366,74	5523,37
366,94	4636,60
367,15	3817,41
367,36	3125,20
367,56	2994,13
367,77	2562,01
367,98	2627,54
368,18	2271,20
368,39	2238,43
368,60	2353,12
368,80	2074,59
369,01	2103,26
369,22	2086,88
369,42	2246,62
369,63	2068,45
369,84	2140,13
370,04	2185,18
370,25	2183,13
370,46	2234,33
370,66	2076,64
370,87	2113,50
371,07	2248,67
371,28	2127,84
371,49	2119,65
371,69	2154,46
371,90	2269,15
372,11	2170,85
372,31	2080,74
372,52	2013,15
372,73	2285,53
372,93	2287,58
373,14	1992,67
373,34	1964,00
373,55	1982,43
373,76	1937,38
373,96	2101,22
374,17	2111,46
374,38	2129,89
374,58	2017,25
374,79	2222,05
374,99	2007,01
375,20	2088,93
375,41	2033,63
375,61	2031,58
375,82	2164,70
376,03	2117,60
376,23	2146,27
376,44	2043,87
376,64	2131,94
376,85	2234,33
377,06	2209,76
377,26	2090,98
377,47	2084,83
377,67	2133,98
377,88	2025,44
378,09	1992,67
378,29	2131,94
378,50	2248,67
378,70	1972,19
378,91	2027,49
379,12	2041,82
379,32	2117,60
379,53	2209,76
379,73	2172,89
379,94	2193,37
380,15	2246,62
380,35	2117,60
380,56	2174,94
380,76	2185,18
380,97	2152,42
381,18	2078,69
381,38	1978,34
381,59	2007,01
381,79	2162,66
382,00	2093,02
382,21	2068,45
382,41	1984,48
382,62	2224,09
382,82	2174,94
383,03	1923,04
383,23	2207,71
383,44	2250,72
383,65	2082,78
383,85	2199,52
384,06	2027,49
384,26	2330,59
384,47	2025,44
384,67	2199,52
384,88	2164,70
385,09	2162,66
385,29	2258,91
385,50	2195,42
385,70	2088,93
385,91	2080,74
386,11	2082,78
386,32	2064,35
386,53	2217,95
386,73	2189,28
386,94	2062,30
387,14	2074,59
387,35	2119,65
387,55	2168,80
387,76	2052,06
387,96	2029,54
388,17	2160,61
388,38	2056,16
388,58	2275,29
388,79	2041,82
388,99	2064,35
389,20	2158,56
389,40	2146,27
389,61	2093,02
389,81	2156,51
390,02	2054,11
390,22	2289,63
390,43	2179,04
390,64	2113,50
390,84	2242,53
391,05	2267,10
391,25	2107,36
391,46	2131,94
391,66	2176,99
391,87	2097,12
392,07	2074,59
392,28	2287,58
392,48	2193,37
392,69	2074,59
392,89	2013,15
393,10	2093,02
393,30	2064,35
393,51	2230,24
393,71	2117,60
393,92	2039,78
394,12	2269,15
394,33	2133,98
394,54	2168,80
394,74	2101,22
394,95	2455,51
395,15	2021,35
395,36	2103,26
395,56	2000,87
395,77	2052,06
395,97	2277,34
396,18	2119,65
396,38	2103,26
396,59	2295,77
396,79	2174,94
397,00	2148,32
397,20	2228,19
397,41	2279,39
397,61	2080,74
397,82	2197,47
398,02	2113,50
398,23	2459,61
398,43	2291,68
398,64	2099,17
398,84	2050,02
399,05	2285,53
399,25	2131,94
399,46	2172,89
399,66	2160,61
399,87	2263,01
400,07	2131,94
400,28	2074,59
400,48	2183,13
400,68	2289,63
400,89	2174,94
401,09	2236,38
401,30	2109,41
401,50	2387,93
401,71	2201,57
401,91	2199,52
402,12	2228,19
402,32	2250,72
402,53	2211,81
402,73	2250,72
402,94	2496,47
403,14	2770,90
403,35	3688,39
403,55	5212,08
403,76	7825,29
403,96	12642,11
404,16	18024,17
404,37	22843,04
404,57	24350,35
404,78	24761,99
404,98	23047,84
405,19	19277,53
405,39	14812,96
405,60	12011,34
405,80	9916,26
406,01	7696,27
406,21	5771,18
406,42	4564,92
406,62	3641,29
406,82	3133,39
407,03	3186,64
407,23	3504,07
407,44	3790,79
407,64	3796,93
407,85	3821,51
408,05	4069,31
408,26	3385,29
408,46	3198,93
408,66	2918,36
408,87	2787,29
409,07	2645,98
409,28	2461,66
409,48	2457,56
409,69	2310,11
409,89	2389,98
410,09	2201,57
410,30	2179,04
410,50	2416,60
410,71	2443,23
410,91	2287,58
411,12	2240,48
411,32	2275,29
411,52	2340,83
411,73	2277,34
411,93	2168,80
412,14	2310,11
412,34	2228,19
412,55	2140,13
412,75	2250,72
412,95	2265,05
413,16	2166,75
413,36	2140,13
413,57	2322,40
413,77	2299,87
413,97	2320,35
414,18	2195,42
414,38	2215,90
414,59	2234,33
414,79	2150,37
414,99	2242,53
415,20	2316,25
415,40	2191,33
415,61	2158,56
415,81	2269,15
416,01	2230,24
416,22	2324,44
416,42	2217,95
416,63	2203,61
416,83	2193,37
417,03	2299,87
417,24	2344,92
417,44	2211,81
417,65	2148,32
417,85	2420,70
418,05	2125,79
418,26	2209,76
418,46	2189,28
418,66	2211,81
418,87	2244,57
419,07	2226,14
419,28	2228,19
419,48	2242,53
419,68	2164,70
419,89	2283,49
420,09	2234,33
420,29	2240,48
420,50	2283,49
420,70	2211,81
420,91	2248,67
421,11	2185,18
421,31	2162,66
421,52	2258,91
421,72	2125,79
421,92	2183,13
422,13	2164,70
422,33	2080,74
422,53	2299,87
422,74	2301,92
422,94	2174,94
423,15	2334,68
423,35	2197,47
423,55	2322,40
423,76	2115,55
423,96	2119,65
424,16	2193,37
424,37	2299,87
424,57	2422,75
424,77	2162,66
424,98	2064,35
425,18	2107,36
425,38	2330,59
425,59	2099,17
425,79	2101,22
425,99	2293,72
426,20	2248,67
426,40	2166,75
426,60	2146,27
426,81	2437,08
427,01	2363,36
427,21	2213,85
427,42	2142,18
427,62	2392,03
427,82	2265,05
428,03	2426,84
428,23	2093,02
428,43	2252,77
428,64	2336,73
428,84	2330,59
429,04	2275,29
429,25	2510,81
429,45	2199,52
429,65	2291,68
429,86	2238,43
430,06	2158,56
430,26	2260,96
430,47	2115,55
430,67	2201,57
430,87	2420,70
431,08	2314,20
431,28	2275,29
431,48	2351,07
431,68	2293,72
431,89	2361,31
432,09	2279,39
432,29	2375,64
432,50	2418,65
432,70	2314,20
432,90	2373,60
433,11	2287,58
433,31	2441,18
433,51	2488,28
433,72	2582,49
433,92	2713,56
434,12	3399,63
434,32	3966,92
434,53	6252,45
434,73	10649,44
434,93	18566,88
435,14	31559,20
435,34	46859,57
435,54	58711,17
435,74	62282,83
435,95	63788,08
436,15	59792,50
436,35	50185,47
436,56	40209,82
436,76	32337,43
436,96	27004,52
437,16	21610,17
437,37	16221,96
437,57	10274,66
437,77	6563,74
437,97	4255,68
438,18	3264,46
438,38	2713,56
438,58	2699,22
438,79	2648,02
438,99	2516,95
439,19	2471,90
439,39	2428,89
439,60	2406,36
439,80	2420,70
440,00	2353,12
440,20	2246,62
440,41	2226,14
440,61	2377,69
440,81	2293,72
441,01	2314,20
441,22	2432,99
441,42	2430,94
441,62	2209,76
441,82	2228,19
442,03	2293,72
442,23	2385,88
442,43	2369,50
442,63	2299,87
442,84	2220,00
443,04	2254,81
443,24	2439,13
443,44	2283,49
443,65	2355,16
443,85	2385,88
444,05	2187,23
444,25	2279,39
444,46	2359,26
444,66	2369,50
444,86	2222,05
445,06	2179,04
445,26	2398,17
445,47	2392,03
445,67	2238,43
445,87	2371,55
446,07	2271,20
446,28	2359,26
446,48	2226,14
446,68	2291,68
446,88	2275,29
447,08	2521,05
447,29	2191,33
447,49	2183,13
447,69	2230,24
447,89	2525,15
448,10	2394,08
448,30	2248,67
448,50	2189,28
448,70	2349,02
448,90	2287,58
449,11	2228,19
449,31	2312,16
449,51	2287,58
449,71	2281,44
449,91	2179,04
450,12	2160,61
450,32	2299,87
450,52	2293,72
450,72	2187,23
450,92	2385,88
451,13	2316,25
451,33	2205,66
451,53	2281,44
451,73	2224,09
451,93	2371,55
452,14	2258,91
452,34	2152,42
452,54	2287,58
452,74	2326,49
452,94	2340,83
453,14	2363,36
453,35	2228,19
453,55	2211,81
453,75	2310,11
453,95	2201,57
454,15	2228,19
454,36	2242,53
454,56	2181,09
454,76	2248,67
454,96	2142,18
455,16	2322,40
455,36	2340,83
455,57	2187,23
455,77	2269,15
455,97	2209,76
456,17	2187,23
456,37	2162,66
456,57	2103,26
456,78	2320,35
456,98	2412,51
457,18	2185,18
457,38	2258,91
457,58	2303,96
457,78	2297,82
457,98	2338,78
458,19	2287,58
458,39	2297,82
458,59	2109,41
458,79	2334,68
458,99	2297,82
459,19	2367,45
459,40	2332,64
459,60	2314,20
459,80	2199,52
460,00	2197,47
460,20	2220,00
460,40	2260,96
460,60	2301,92
460,80	2242,53
461,01	2260,96
461,21	2334,68
461,41	2303,96
461,61	2263,01
461,81	2398,17
462,01	2260,96
462,21	2179,04
462,42	2234,33
462,62	2303,96
462,82	2234,33
463,02	2189,28
463,22	2383,84
463,42	2242,53
463,62	2367,45
463,82	2269,15
464,03	2281,44
464,23	2279,39
464,43	2430,94
464,63	2209,76
464,83	2314,20
465,03	2326,49
465,23	2297,82
465,43	2158,56
465,63	2213,85
465,84	2269,15
466,04	2275,29
466,24	2308,06
466,44	2414,56
466,64	2295,77
466,84	2301,92
467,04	2285,53
467,24	2285,53
467,44	2349,02
467,64	2310,11
467,85	2170,85
468,05	2318,30
468,25	2326,49
468,45	2334,68
468,65	2222,05
468,85	2238,43
469,05	2328,54
469,25	2207,71
469,45	2263,01
469,65	2441,18
469,85	2238,43
470,05	2328,54
470,26	2158,56
470,46	2328,54
470,66	2353,12
470,86	2283,49
471,06	2326,49
471,26	2355,16
471,46	2267,10
471,66	2267,10
471,86	2334,68
472,06	2379,74
472,26	2277,34
472,46	2222,05
472,66	2398,17
472,86	2414,56
473,07	2295,77
473,27	2297,82
473,47	2181,09
473,67	2365,40
473,87	2404,32
474,07	2291,68
474,27	2400,22
474,47	2385,88
474,67	2420,70
474,87	2265,05
475,07	2258,91
475,27	2320,35
475,47	2297,82
475,67	2322,40
475,87	2224,09
476,07	2306,01
476,27	2400,22
476,47	2379,74
476,67	2254,81
476,88	2295,77
477,08	2367,45
477,28	2392,03
477,48	2234,33
477,68	2572,25
477,88	2351,07
478,08	2291,68
478,28	2387,93
478,48	2437,08
478,68	2248,67
478,88	2394,08
479,08	2449,37
479,28	2410,46
479,48	2486,23
479,68	2379,74
479,88	2336,73
480,08	2475,99
480,28	2432,99
480,48	2328,54
480,68	2365,40
480,88	2392,03
481,08	2424,80
481,28	2381,79
481,48	2263,01
481,68	2389,98
481,88	2406,36
482,08	2488,28
482,28	2293,72
482,48	2459,61
482,68	2549,72
482,88	2252,77
483,08	2430,94
483,28	2484,19
483,48	2281,44
483,68	2308,06
483,88	2383,84
484,08	2342,88
484,28	2447,32
484,48	2371,55
484,68	2445,27
484,88	2475,99
485,08	2283,49
485,28	2336,73
485,48	2396,12
485,68	2340,83
485,88	2500,57
486,08	2346,97
486,28	2303,96
486,48	2514,91
486,68	2371,55
486,88	2426,84
487,08	2426,84
487,28	2387,93
487,48	2432,99
487,68	2332,64
487,88	2349,02
488,08	2473,95
488,28	2500,57
488,48	2392,03
488,68	2396,12
488,88	2588,63
489,08	2412,51
489,28	2469,85
489,48	2506,71
489,68	2572,25
489,87	2432,99
490,07	2332,64
490,27	2484,19
490,47	2619,35
490,67	2582,49
490,87	2514,91
491,07	2811,86
491,27	2713,56
491,47	2686,94
491,67	2807,77
491,87	2748,37
492,07	2904,02
492,27	2711,51
492,47	2523,10
492,67	2594,78
492,87	2547,67
493,07	2498,52
493,27	2535,39
493,47	2418,65
493,66	2566,10
493,86	2428,89
494,06	2445,27
494,26	2439,13
494,46	2668,50
494,66	2416,60
494,86	2539,48
495,06	2455,51
495,26	2502,62
495,46	2475,99
495,66	2533,34
495,86	2426,84
496,06	2654,17
496,26	2592,73
496,45	2424,80
496,65	2418,65
496,85	2506,71
497,05	2469,85
497,25	2428,89
497,45	2385,88
497,65	2582,49
497,85	2461,66
498,05	2473,95
498,25	2482,14
498,45	2568,15
498,64	2648,02
498,84	2514,91
499,04	2375,64
499,24	2516,95
499,44	2519,00
499,64	2471,90
499,84	2377,69
500,04	2455,51
500,24	2553,82
500,44	2441,18
500,63	2482,14
500,83	2633,69
501,03	2349,02
501,23	2467,80
501,43	2527,19
501,63	2498,52
501,83	2631,64
502,03	2562,01
502,23	2465,75
502,42	2379,74
502,62	2510,81
502,82	2625,50
503,02	2564,06
503,22	2693,08
503,42	2361,31
503,62	2406,36
503,82	2375,64
504,01	2312,16
504,21	2453,47
504,41	2369,50
504,61	2633,69
504,81	2426,84
505,01	2461,66
505,21	2588,63
505,40	2494,43
505,60	2510,81
505,80	2639,83
506,00	2543,58
506,20	2377,69
506,40	2555,86
506,60	2410,46
506,79	2463,71
506,99	2414,56
507,19	2539,48
507,39	2494,43
507,59	2480,09
507,79	2424,80
507,99	2666,46
508,18	2549,72
508,38	2559,96
508,58	2373,60
508,78	2715,61
508,98	2660,31
509,18	2410,46
509,37	2525,15
509,57	2455,51
509,77	2533,34
509,97	2500,57
510,17	2500,57
510,37	2512,86
510,56	2402,27
510,76	3045,33
510,96	2492,38
511,16	2457,56
511,36	2525,15
511,56	2426,84
511,75	2418,65
511,95	2863,06
512,15	2533,34
512,35	2488,28
512,55	2412,51
512,75	2525,15
512,94	2570,20
513,14	2465,75
513,34	2455,51
513,54	2387,93
513,74	2527,19
513,93	2463,71
514,13	2389,98
514,33	2541,53
514,53	2641,88
514,73	2381,79
514,92	2490,33
515,12	2473,95
515,32	2684,89
515,52	2398,17
515,72	2490,33
515,91	2672,60
516,11	2566,10
516,31	2385,88
516,51	2416,60
516,71	2469,85
516,90	2428,89
517,10	2422,75
517,30	2363,36
517,50	2551,77
517,69	2475,99
517,89	2490,33
518,09	2308,06
518,29	2502,62
518,49	2533,34
518,68	2414,56
518,88	2512,86
519,08	2357,21
519,28	2541,53
519,47	2383,84
519,67	2297,82
519,87	2607,06
520,07	2484,19
520,27	2578,39
520,46	2369,50
520,66	2463,71
520,86	2523,10
521,06	2361,31
521,25	2404,32
521,45	2666,46
521,65	2625,50
521,85	2402,27
522,04	2377,69
522,24	2457,56
522,44	2475,99
522,64	2559,96
522,83	2463,71
523,03	2734,04
523,23	2392,03
523,43	2453,47
523,62	2377,69
523,82	2625,50
524,02	2539,48
524,22	2445,27
524,41	2519,00
524,61	2637,78
524,81	2502,62
525,01	2463,71
525,20	2420,70
525,40	2658,26
525,60	2562,01
525,80	2484,19
525,99	2435,03
526,19	2521,05
526,39	2627,54
526,58	2482,14
526,78	2396,12
526,98	2344,92
527,18	2400,22
527,37	2377,69
527,57	2445,27
527,77	2568,15
527,96	2572,25
528,16	2387,93
528,36	2301,92
528,56	2621,40
528,75	2656,22
528,95	2463,71
529,15	2303,96
529,34	2619,35
529,54	2475,99
529,74	2359,26
529,94	2373,60
530,13	2678,74
530,33	2605,02
530,53	2473,95
530,72	2394,08
530,92	2764,76
531,12	2543,58
531,31	2473,95
531,51	2375,64
531,71	2635,74
531,91	2598,87
532,10	2512,86
532,30	2324,44
532,50	2574,30
532,69	2428,89
532,89	2529,24
533,09	2387,93
533,28	2412,51
533,48	2629,59
533,68	2338,78
533,87	2420,70
534,07	2578,39
534,27	2498,52
534,46	2408,41
534,66	2400,22
534,86	2457,56
535,05	2445,27
535,25	2437,08
535,45	2365,40
535,64	2430,94
535,84	2471,90
536,04	2420,70
536,23	2312,16
536,43	2545,63
536,63	2420,70
536,82	2346,97
537,02	2316,25
537,22	2598,87
537,41	2443,23
537,61	2414,56
537,81	2492,38
538,00	2475,99
538,20	2404,32
538,40	2437,08
538,59	2424,80
538,79	2568,15
538,99	2564,06
539,18	2451,42
539,38	2473,95
539,58	2809,81
539,77	2686,94
539,97	2435,03
540,16	2539,48
540,36	2742,23
540,56	2555,86
540,75	2586,58
540,95	2439,13
541,15	2494,43
541,34	2420,70
541,54	2545,63
541,73	2473,95
541,93	2686,94
542,13	2553,82
542,32	2557,91
542,52	2359,26
542,72	2693,08
542,91	2693,08
543,11	2473,95
543,30	2451,42
543,50	2750,42
543,70	2531,29
543,89	2461,66
544,09	2435,03
544,28	2754,52
544,48	2818,00
544,68	3018,71
544,87	4534,20
545,07	10153,83
545,27	20776,64
545,46	33502,72
545,66	46411,07
545,85	55108,79
546,05	57640,08
546,25	55184,57
546,44	49437,97
546,64	40572,31
546,83	34627,06
547,03	30987,82
547,22	27666,01
547,42	24258,19
547,62	20416,20
547,81	16664,32
548,01	13668,14
548,20	10950,49
548,40	8720,25
548,60	6500,25
548,79	5056,43
548,99	4018,11
549,18	3565,51
549,38	3080,14
549,57	2777,05
549,77	2875,35
549,97	2707,41
550,16	2553,82
550,36	2387,93
550,55	2598,87
550,75	2588,63
550,94	2324,44
551,14	2549,72
551,34	2527,19
551,53	2562,01
551,73	2439,13
551,92	2420,70
552,12	2428,89
552,31	2539,48
552,51	2351,07
552,70	2351,07
552,90	2676,70
553,10	2514,91
553,29	2467,80
553,49	2375,64
553,68	2482,14
553,88	2424,80
554,07	2428,89
554,27	2412,51
554,46	2660,31
554,66	2568,15
554,85	2416,60
555,05	2342,88
555,25	2527,19
555,44	2435,03
555,64	2353,12
555,83	2328,54
556,03	2514,91
556,22	2637,78
556,42	2383,84
556,61	2316,25
556,81	2572,25
557,00	2435,03
557,20	2267,10
557,39	2519,00
557,59	2590,68
557,78	2596,82
557,98	2365,40
558,17	2299,87
558,37	2447,32
558,56	2580,44
558,76	2369,50
558,95	2424,80
559,15	2463,71
559,34	2516,95
559,54	2357,21
559,73	2463,71
559,93	2607,06
560,12	2424,80
560,32	2357,21
560,51	2455,51
560,71	2471,90
560,90	2453,47
561,10	2342,88
561,29	2263,01
561,49	2459,61
561,68	2392,03
561,88	2418,65
562,07	2351,07
562,27	2508,76
562,46	2557,91
562,66	2369,50
562,85	2236,38
563,05	2531,29
563,24	2519,00
563,44	2430,94
563,63	2330,59
563,83	2549,72
564,02	2424,80
564,22	2389,98
564,41	2254,81
564,61	2435,03
564,80	2686,94
565,00	2338,78
565,19	2385,88
565,39	2314,20
565,58	2422,75
565,77	2285,53
565,97	2355,16
566,16	2365,40
566,36	2410,46
566,55	2172,89
566,75	2316,25
566,94	2418,65
567,14	2443,23
567,33	2357,21
567,53	2299,87
567,72	2596,82
567,91	2557,91
568,11	2416,60
568,30	2326,49
568,50	2441,18
568,69	2363,36
568,89	2289,63
569,08	2469,85
569,28	2387,93
569,47	2502,62
569,66	2306,01
569,86	2365,40
570,05	2324,44
570,25	2220,00
570,44	2418,65
570,64	2406,36
570,83	2303,96
571,03	2338,78
571,22	2432,99
571,41	2324,44
571,61	2510,81
571,80	2316,25
572,00	2211,81
572,19	2252,77
572,38	2684,89
572,58	2492,38
572,77	2367,45
572,97	2381,79
573,16	2240,48
573,36	2363,36
573,55	2299,87
573,74	2387,93
573,94	2371,55
574,13	2408,41
574,33	2291,68
574,52	2254,81
574,71	2465,75
574,91	2478,04
575,10	2287,58
575,30	2236,38
575,49	2512,86
575,68	2389,98
575,88	2783,19
576,07	4130,75
576,27	6016,93
576,46	7606,16
576,65	9068,41
576,85	9996,14
577,04	9779,05
577,23	9033,59
577,43	8249,22
577,62	7217,04
577,82	6674,33
578,01	6416,29
578,20	7280,53
578,40	8642,43
578,59	9889,64
578,79	10770,27
578,98	10966,87
579,17	10534,75
579,37	9506,67
579,56	8353,66
579,75	7163,79
579,95	6391,71
580,14	5793,70
580,33	5482,41
580,53	5068,72
580,72	4650,94
580,92	4585,40
581,11	3919,81
581,30	3540,94
581,50	3229,65
581,69	2883,54
581,88	2893,78
582,08	2516,95
582,27	2443,23
582,46	2424,80
582,66	2512,86
582,85	2344,92
583,04	2234,33
583,24	2592,73
583,43	2449,37
583,62	2267,10
583,82	2306,01
584,01	2611,16
584,20	2475,99
584,40	2406,36
584,59	2469,85
584,78	2383,84
584,98	2478,04
585,17	2387,93
585,36	2398,17
585,56	2420,70
585,75	2193,37
585,94	2392,03
586,14	2277,34
586,33	2443,23
586,52	2320,35
586,72	2297,82
586,91	2359,26
587,10	2457,56
587,30	2299,87
587,49	2385,88
587,68	2351,07
587,88	2492,38
588,07	2359,26
588,26	2389,98
588,45	2281,44
588,65	2355,16
588,84	2416,60
589,03	2193,37
589,23	2277,34
589,42	2439,13
589,61	2303,96
589,81	2275,29
590,00	2111,46
590,19	2306,01
590,38	2385,88
590,58	2441,18
590,77	2250,72
590,96	2398,17
591,16	2496,47
591,35	2187,23
591,54	2285,53
591,73	2369,50
591,93	2353,12
592,12	2340,83
592,31	2328,54
592,51	2232,29
592,70	2408,41
592,89	2250,72
593,08	2281,44
593,28	2336,73
593,47	2414,56
593,66	2291,68
593,85	2445,27
594,05	2500,57
594,24	2283,49
594,43	2308,06
594,63	2236,38
594,82	2521,05
595,01	2359,26
595,20	2318,30
595,40	2455,51
595,59	2502,62
595,78	2271,20
595,97	2334,68
596,17	2377,69
596,36	2480,09
596,55	2430,94
596,74	2220,00
596,94	2211,81
597,13	2582,49
597,32	2293,72
597,51	2392,03
597,71	2220,00
597,90	2521,05
598,09	2361,31
598,28	2320,35
598,48	2281,44
598,67	2381,79
598,86	2398,17
599,05	2400,22
599,24	2369,50
599,44	2527,19
599,63	2463,71
599,82	2252,77
600,01	2283,49
600,21	2457,56
600,40	2279,39
600,59	2248,67
600,78	2279,39
600,97	2473,95
601,17	2334,68
601,36	2166,75
601,55	2324,44
601,74	2443,23
601,93	2402,27
602,13	2355,16
602,32	2414,56
602,51	2328,54
602,70	2254,81
602,90	2387,93
603,09	2383,84
603,28	2412,51
603,47	2242,53
603,66	2263,01
603,86	2260,96
604,05	2203,61
604,24	2418,65
604,43	2215,90
604,62	2414,56
604,81	2344,92
605,01	2428,89
605,20	2351,07
605,39	2367,45
605,58	2349,02
605,77	2355,16
605,97	2320,35
606,16	2269,15
606,35	2375,64
606,54	2355,16
606,73	2486,23
606,92	2338,78
607,12	2320,35
607,31	2500,57
607,50	2494,43
607,69	2441,18
607,88	2355,16
608,07	2369,50
608,27	2478,04
608,46	2283,49
608,65	2394,08
608,84	2463,71
609,03	2252,77
609,22	2303,96
609,42	2404,32
609,61	2265,05
609,80	2306,01
609,99	2240,48
610,18	2220,00
610,37	2396,12
610,57	2385,88
610,76	2275,29
610,95	2379,74
611,14	2953,17
611,33	2387,93
611,52	2357,21
611,71	2320,35
611,90	2314,20
612,10	2398,17
612,29	2301,92
612,48	2328,54
612,67	2478,04
612,86	2404,32
613,05	2322,40
613,24	2277,34
613,44	2500,57
613,63	2314,20
613,82	2353,12
614,01	2445,27
614,20	2435,03
614,39	2326,49
614,58	2285,53
614,77	2582,49
614,97	2340,83
615,16	2217,95
615,35	2244,57
615,54	2285,53
615,73	2365,40
615,92	2373,60
616,11	2328,54
616,30	2306,01
616,49	2197,47
616,68	2148,32
616,88	2320,35
617,07	2377,69
617,26	2346,97
617,45	2267,10
617,64	2207,71
617,83	2306,01
618,02	2349,02
618,21	2330,59
618,40	2230,24
618,59	2359,26
618,79	2418,65
618,98	2379,74
619,17	2297,82
619,36	2367,45
619,55	2422,75
619,74	2428,89
619,93	2232,29
620,12	2402,27
620,31	2271,20
620,50	2312,16
620,69	2435,03
620,88	2322,40
621,07	2533,34
621,27	2367,45
621,46	2367,45
621,65	2418,65
621,84	2353,12
622,03	2537,43
622,22	2222,05
622,41	2418,65
622,60	2314,20
622,79	2346,97
622,98	2303,96
623,17	2240,48
623,36	2355,16
623,55	2383,84
623,74	2256,86
623,93	2338,78
624,12	2400,22
624,31	2318,30
624,50	2346,97
624,70	2199,52
624,89	2627,54
625,08	2172,89
625,27	2220,00
625,46	2252,77
625,65	2404,32
625,84	2363,36
626,03	2385,88
626,22	2439,13
626,41	2234,33
626,60	2217,95
626,79	2336,73
626,98	2531,29
627,17	2404,32
627,36	2236,38
627,55	2263,01
627,74	2342,88
627,93	2244,57
628,12	2248,67
628,31	2181,09
628,50	2482,14
628,69	2258,91
628,88	2250,72
629,07	2322,40
629,26	2351,07
629,45	2383,84
629,64	2265,05
629,83	2279,39
630,02	2379,74
630,21	2252,77
630,40	2240,48
630,59	2201,57
630,78	2299,87
630,97	2312,16
631,16	2320,35
631,35	2191,33
631,54	2353,12
631,73	2355,16
631,92	2160,61
632,11	2236,38
632,30	2230,24
632,49	2322,40
632,68	2246,62
632,87	2185,18
633,06	2357,21
633,25	2256,86
633,44	2254,81
633,63	2129,89
633,82	2308,06
634,01	2166,75
634,20	2275,29
634,39	2285,53
634,58	2320,35
634,77	2273,25
634,96	2297,82
635,15	2142,18
635,34	2717,65
635,53	2289,63
635,72	2226,14
635,91	2256,86
636,10	2267,10
636,29	2224,09
636,47	2301,92
636,66	2248,67
636,85	2357,21
637,04	2326,49
637,23	2361,31
637,42	2158,56
637,61	2164,70
637,80	2199,52
637,99	2258,91
638,18	2207,71
638,37	2432,99
638,56	2285,53
638,75	2273,25
638,94	2154,46
639,13	2394,08
639,32	2361,31
639,51	2267,10
639,69	2105,31
639,88	2363,36
640,07	2269,15
640,26	2133,98
640,45	2265,05
640,64	2263,01
640,83	2168,80
641,02	2228,19
641,21	2283,49
641,40	2285,53
641,59	2148,32
641,78	2293,72
641,97	2303,96
642,15	2179,04
642,34	2361,31
642,53	2322,40
642,72	2254,81
642,91	2254,81
643,10	2295,77
643,29	2342,88
643,48	2152,42
643,67	2400,22
643,86	2252,77
644,05	2238,43
644,23	2318,30
644,42	2164,70
644,61	2174,94
644,80	2279,39
644,99	2224,09
645,18	2363,36
645,37	2232,29
645,56	2215,90
645,75	2109,41
645,93	2346,97
646,12	2201,57
646,31	2168,80
646,50	2162,66
646,69	2349,02
646,88	2250,72
647,07	2287,58
647,26	2181,09
647,44	2291,68
647,63	2271,20
647,82	2234,33
648,01	2166,75
648,20	2174,94
648,39	2330,59
648,58	2131,94
648,77	2400,22
648,95	2285,53
649,14	2162,66
649,33	2131,94
649,52	2179,04
649,71	2156,51
649,90	2455,51
650,09	2195,42
650,27	2234,33
650,46	2535,39
650,65	2158,56
650,84	2176,99
651,03	2179,04
651,22	2367,45
651,40	2303,96
651,59	2242,53
651,78	2326,49
651,97	2174,94
652,16	2199,52
652,35	2123,74
652,53	2310,11
652,72	2283,49
652,91	2103,26
653,10	2129,89
653,29	2215,90
653,48	2232,29
653,66	2322,40
653,85	2146,27
654,04	2119,65
654,23	2297,82
654,42	2220,00
654,61	2136,03
654,79	2203,61
654,98	2273,25
655,17	2093,02
655,36	2133,98
655,55	2215,90
655,73	2093,02
655,92	2201,57
656,11	2164,70
656,30	2183,13
656,49	2215,90
656,67	2050,02
656,86	2244,57
657,05	2144,22
657,24	2191,33
657,43	2064,35
657,61	2193,37
657,80	2193,37
657,99	2226,14
658,18	2330,59
658,37	2136,03
658,55	2152,42
658,74	2254,81
658,93	2283,49
659,12	2062,30
659,30	2164,70
659,49	2281,44
659,68	2238,43
659,87	2209,76
660,06	2117,60
660,24	2316,25
660,43	2150,37
660,62	2164,70
660,81	2252,77
660,99	2215,90
661,18	2236,38
661,37	2308,06
661,56	2232,29
661,75	2303,96
661,93	2230,24
662,12	2217,95
662,31	2179,04
662,50	2293,72
662,68	2349,02
662,87	2281,44
663,06	2183,13
663,25	2140,13
663,43	2209,76
663,62	2220,00
663,81	2160,61
664,00	2439,13
664,18	2285,53
664,37	2287,58
664,56	2174,94
664,75	2197,47
664,93	2312,16
665,12	2113,50
665,31	2265,05
665,49	2250,72
665,68	2232,29
665,87	2252,77
666,06	2181,09
666,24	2271,20
666,43	2146,27
666,62	2080,74
666,81	2174,94
666,99	2314,20
667,18	2215,90
667,37	2326,49
667,55	2244,57
667,74	2392,03
667,93	2334,68
668,12	2142,18
668,30	2103,26
668,49	2316,25
668,68	2209,76
668,86	2246,62
669,05	1998,82
669,24	2230,24
669,42	2097,12
669,61	2144,22
669,80	2203,61
669,99	2265,05
670,17	2195,42
670,36	2226,14
670,55	2289,63
670,73	2115,55
670,92	2119,65
671,11	2127,84
671,29	2195,42
671,48	2174,94
671,67	2209,76
671,85	2258,91
672,04	2168,80
672,23	2181,09
672,42	2170,85
672,60	2140,13
672,79	2279,39
672,98	2183,13
673,16	2355,16
673,35	2322,40
673,54	2191,33
673,72	2281,44
673,91	2129,89
674,10	2080,74
674,28	2338,78
674,47	2193,37
674,66	2060,26
674,84	2238,43
675,03	2119,65
675,22	2115,55
675,40	2193,37
675,59	2152,42
675,77	2185,18
675,96	2203,61
676,15	2082,78
676,33	2123,74
676,52	2078,69
676,71	2318,30
676,89	2168,80
677,08	2123,74
677,27	2078,69
677,45	2295,77
677,64	2117,60
677,83	2236,38
678,01	2041,82
678,20	2164,70
678,38	2314,20
678,57	2254,81
678,76	2189,28
678,94	2316,25
679,13	2357,21
679,32	2420,70
679,50	2117,60
679,69	2129,89
679,87	2367,45
680,06	2164,70
680,25	2240,48
680,43	2217,95
680,62	2109,41
680,81	2248,67
680,99	2097,12
681,18	2164,70
681,36	2250,72
681,55	2240,48
681,74	2123,74
681,92	2146,27
682,11	2285,53
682,29	2195,42
682,48	2101,22
682,67	2160,61
682,85	2383,84
683,04	2176,99
683,22	2103,26
683,41	2318,30
683,60	2140,13
683,78	2080,74
683,97	2148,32
684,15	2076,64
684,34	2217,95
684,52	2156,51
684,71	2105,31
684,90	2195,42
685,08	2297,82
685,27	2127,84
685,45	2090,98
685,64	2246,62
685,82	2195,42
686,01	2191,33
686,20	2052,06
686,38	2238,43
686,57	2203,61
686,75	2203,61
686,94	2138,08
687,12	2197,47
687,31	2072,54
687,50	2121,70
687,68	2062,30
687,87	2185,18
688,05	2199,52
688,24	2144,22
688,42	2037,73
688,61	2154,46
688,79	2189,28
688,98	2222,05
689,17	2185,18
689,35	2285,53
689,54	2183,13
689,72	2033,63
689,91	2254,81
690,09	2283,49
690,28	2215,90
690,46	2187,23
690,65	2277,34
690,83	2488,28
691,02	2287,58
691,20	2115,55
691,39	2224,09
691,57	2265,05
691,76	2269,15
691,95	2344,92
692,13	2066,40
692,32	2148,32
692,50	2127,84
692,69	2205,66
692,87	2037,73
693,06	2211,81
693,24	2228,19
693,43	2334,68
693,61	2009,06
693,80	2107,36
693,98	2254,81
694,17	2097,12
694,35	2013,15
694,54	2246,62
694,72	2017,25
694,91	2080,74
695,09	2154,46
695,28	2119,65
695,46	2146,27
695,65	2045,92
695,83	2109,41
696,02	2199,52
696,20	2349,02
696,39	2197,47
696,57	2150,37
696,76	2160,61
696,94	2002,91
697,13	2201,57
697,31	2191,33
697,49	2052,06
697,68	2164,70
697,86	2166,75
698,05	2133,98
698,23	2396,12
698,42	2027,49
698,60	2183,13
698,79	2217,95
698,97	2123,74
699,16	2140,13
699,34	2254,81
699,53	2131,94
699,71	2062,30
699,90	2156,51
700,08	2140,13
700,26	2230,24
700,45	2138,08
700,63	2068,45
700,82	2109,41
701,00	2101,22
701,19	2342,88
701,37	2068,45
701,56	2084,83
701,74	2224,09
701,92	2277,34
702,11	2093,02
702,29	2078,69
702,48	2107,36
702,66	2127,84
702,85	1972,19
703,03	2148,32
703,22	2011,11
703,40	2164,70
703,58	1957,86
703,77	2203,61
703,95	2045,92
704,14	2142,18
704,32	2142,18
704,50	2220,00
704,69	2070,50
704,87	2199,52
705,06	2045,92
705,24	2142,18
705,43	2002,91
705,61	2160,61
705,79	2043,87
705,98	2136,03
706,16	2316,25
706,35	2125,79
706,53	1984,48
706,71	2136,03
706,90	2113,50
707,08	2185,18
707,27	2363,36
707,45	2129,89
707,63	2076,64
707,82	2103,26
708,00	1996,77
708,19	2113,50
708,37	2211,81
708,55	2191,33
708,74	2050,02
708,92	2047,97
709,10	2025,44
709,29	2025,44
709,47	2140,13
709,66	2068,45
709,84	2099,17
710,02	1988,58
710,21	2140,13
710,39	2174,94
710,57	2197,47
710,76	2093,02
710,94	2086,88
711,13	2181,09
711,31	2029,54
711,49	2195,42
711,68	2228,19
711,86	2265,05
712,04	2043,87
712,23	2260,96
712,41	2119,65
712,59	2189,28
712,78	2066,40
712,96	2037,73
713,14	2117,60
713,33	2088,93
713,51	2090,98
713,70	2226,14
713,88	2164,70
714,06	1998,82
714,25	2279,39
714,43	2045,92
714,61	2158,56
714,80	2154,46
714,98	2002,91
715,16	2179,04
715,35	2299,87
715,53	2174,94
715,71	2138,08
715,90	2252,77
716,08	1894,37
716,26	2115,55
716,45	2176,99
716,63	2015,20
716,81	1980,39
716,99	2142,18
717,18	1955,81
717,36	2166,75
717,54	1961,95
717,73	2023,39
717,91	2021,35
718,09	2248,67
718,28	1939,43
718,46	1945,57
718,64	2062,30
718,83	2074,59
719,01	2125,79
719,19	2041,82
719,37	2078,69
719,56	2142,18
719,74	1994,72
719,92	2105,31
720,11	2041,82
720,29	2045,92
720,47	2076,64
720,65	2064,35
720,84	2252,77
721,02	2150,37
721,20	2058,21
721,39	2070,50
721,57	2097,12
721,75	2228,19
721,93	2027,49
722,12	1949,67
722,30	2043,87
722,48	2082,78
722,66	1980,39
722,85	2133,98
723,03	2191,33
723,21	2109,41
723,40	2209,76
723,58	1923,04
723,76	2123,74
723,94	2084,83
724,13	2168,80
724,31	1982,43
724,49	2193,37
724,67	2152,42
724,86	2088,93
725,04	2050,02
725,22	2056,16
725,40	2138,08
725,59	2133,98
725,77	2047,97
725,95	2189,28
726,13	2211,81
726,32	2045,92
726,50	2045,92
726,68	2019,30
726,86	2193,37
727,04	2138,08
727,23	2037,73
727,41	2002,91
727,59	2217,95
727,77	2054,11
727,96	1918,95
728,14	2064,35
728,32	2021,35
728,50	2197,47
728,68	2007,01
728,87	1992,67
729,05	2052,06
729,23	2232,29
729,41	2002,91
729,60	2150,37
729,78	2127,84
729,96	2076,64
730,14	2039,78
730,32	2000,87
730,51	2095,07
730,69	2133,98
730,87	2103,26
731,05	2013,15
731,23	2168,80
731,42	2084,83
731,60	2103,26
731,78	2035,68
731,96	2070,50
732,14	2125,79
732,32	2013,15
732,51	2029,54
732,69	2160,61
732,87	2113,50
733,05	2060,26
733,23	2007,01
733,42	2041,82
733,60	2150,37
733,78	2203,61
733,96	2054,11
734,14	2129,89
734,32	2035,68
734,51	2080,74
734,69	2199,52
734,87	2004,96
735,05	2420,70
735,23	2017,25
735,41	2013,15
735,60	2105,31
735,78	2041,82
735,96	2066,40
736,14	2136,03
736,32	2013,15
736,50	1996,77
736,68	2037,73
736,87	2043,87
737,05	2056,16
737,23	2140,13
737,41	2013,15
737,59	2013,15
737,77	2023,39
737,95	2125,79
738,14	2275,29
738,32	2140,13
738,50	2164,70
738,68	2058,21
738,86	2168,80
739,04	2060,26
739,22	2248,67
739,41	2070,50
739,59	2160,61
739,77	2041,82
739,95	2482,14
740,13	2017,25
740,31	2164,70
740,49	2045,92
740,67	2172,89
740,85	2062,30
741,04	2207,71
741,22	2027,49
741,40	1914,85
741,58	2078,69
741,76	2029,54
741,94	2015,20
742,12	2015,20
742,30	1947,62
742,48	2060,26
742,67	1916,90
742,85	2160,61
743,03	2066,40
743,21	2041,82
743,39	1970,15
743,57	2070,50
743,75	1959,91
743,93	1929,19
744,11	1927,14
744,29	2103,26
744,47	2080,74
744,65	2009,06
744,84	1927,14
745,02	2054,11
745,20	2095,07
745,38	2004,96
745,56	2101,22
745,74	1974,24
745,92	2107,36
746,10	1961,95
746,28	2058,21
746,46	1957,86
746,64	1974,24
746,82	1951,71
747,00	2144,22
747,18	2156,51
747,36	2019,30
747,55	2007,01
747,73	1949,67
747,91	2136,03
748,09	2230,24
748,27	2142,18
748,45	2025,44
748,63	2127,84
748,81	2195,42
748,99	1986,53
749,17	1906,66
749,35	2068,45
749,53	2111,46
749,71	1998,82
749,89	2115,55
750,07	2181,09
750,25	2189,28
750,43	1929,19
750,61	1927,14
750,79	2117,60
750,97	2252,77
751,15	2123,74
751,33	2136,03
751,51	2162,66
751,69	2295,77
751,87	2119,65
752,05	2093,02
752,23	2027,49
752,41	1970,15
752,59	2054,11
752,77	1910,75
752,95	2086,88
753,13	2107,36
753,31	1869,80
753,49	2205,66
753,67	1882,08
753,85	2033,63
754,03	2090,98
754,21	1877,99
754,39	2093,02
754,57	2011,11
754,75	2004,96
754,93	2086,88
755,11	2140,13
755,29	1869,80
755,47	1955,81
755,65	2121,70
755,83	2228,19
756,01	2109,41
756,19	2105,31
756,37	1933,28
756,55	1906,66
756,73	2103,26
756,91	2050,02
757,09	1910,75
757,27	2090,98
757,45	1976,29
757,63	2037,73
757,81	1982,43
757,99	1998,82
758,17	1935,33
758,35	2078,69
758,53	1875,94
758,71	2109,41
758,89	2187,23
759,07	1941,47
759,25	1984,48
759,43	2009,06
759,61	2021,35
759,79	1804,26
759,96	1947,62
760,14	1968,10
760,32	2011,11
760,50	1775,59
760,68	1882,08
760,86	1992,67
761,04	2023,39
761,22	1761,25
761,40	2015,20
761,58	2101,22
761,76	1935,33
761,94	1927,14
762,12	1880,04
762,30	2060,26
762,48	2013,15
762,65	1818,60
762,83	1918,95
763,01	2039,78
763,19	2189,28
763,37	2154,46
763,55	2029,54
763,73	2158,56
763,91	2129,89
764,09	1988,58
764,27	1980,39
764,45	1935,33
764,62	1877,99
764,80	2070,50
764,98	1859,56
765,16	1986,53
765,34	2023,39
765,52	2066,40
765,70	1898,47
765,88	2172,89
766,06	2027,49
766,24	1937,38
766,41	2125,79
766,59	2041,82
766,77	1953,76
766,95	1859,56
767,13	1912,80
767,31	2146,27
767,49	2033,63
767,67	1959,91
767,84	1853,41
768,02	2162,66
768,20	2076,64
768,38	2066,40
768,56	2025,44
768,74	1947,62
768,92	1990,63
769,10	2058,21
769,27	1988,58
769,45	2056,16
769,63	2174,94
769,81	1925,09
769,99	1861,60
770,17	1845,22
770,35	2021,35
770,52	2029,54
770,70	2023,39
770,88	2045,92
771,06	1925,09
771,24	2000,87
771,42	1998,82
771,59	1937,38
771,77	1959,91
771,95	1943,52
772,13	1859,56
772,31	2084,83
772,49	2222,05
772,66	1894,37
772,84	1941,47
773,02	2129,89
773,20	1992,67
773,38	1898,47
773,56	1970,15
773,73	2242,53
773,91	1925,09
774,09	1912,80
774,27	1943,52
774,45	2226,14
774,63	1925,09
774,80	2045,92
774,98	1863,65
775,16	1988,58
775,34	2072,54
775,52	1890,28
775,69	1931,23
775,87	2086,88
776,05	2058,21
776,23	2076,64
776,41	1984,48
776,58	2060,26
776,76	2056,16
776,94	1976,29
777,12	1998,82
777,30	2050,02
777,47	1953,76
777,65	1964,00
777,83	1890,28
778,01	2088,93
778,18	2017,25
778,36	2043,87
778,54	1951,71
778,72	2107,36
778,90	2111,46
779,07	1931,23
779,25	2002,91
779,43	2123,74
779,61	2129,89
779,78	1941,47
779,96	1941,47
780,14	1996,77
780,32	1992,67
780,49	1941,47
780,67	1769,44
780,85	2080,74
781,03	1953,76
781,20	2007,01
781,38	1933,28
781,56	2236,38
781,74	2011,11
781,91	1978,34
782,09	1828,84
782,27	2031,58
782,45	2029,54
782,62	1927,14
782,80	2021,35
782,98	2123,74
783,16	1961,95
783,33	1880,04
783,51	1845,22
783,69	2121,70
783,87	2107,36
784,04	1933,28
784,22	1906,66
784,40	2033,63
784,58	2011,11
784,75	1986,53
784,93	1863,65
785,11	1970,15
785,28	2148,32
785,46	2000,87
785,64	1904,61
785,82	2166,75
785,99	1896,42
786,17	1920,99
786,35	2017,25
786,52	1966,05
786,70	1947,62
786,88	1957,86
787,05	1791,97
787,23	2123,74
787,41	2078,69
787,59	1949,67
787,76	1826,79
787,94	2105,31
788,12	1818,60
788,29	1910,75
788,47	1916,90
788,65	1961,95
788,82	1904,61
789,00	1884,13
789,18	1976,29
789,35	2045,92
789,53	1914,85
789,71	1953,76
789,88	1851,36
790,06	2148,32
790,24	1996,77
790,41	1900,52
790,59	1920,99
790,77	1939,43
790,94	2056,16
791,12	1912,80
791,30	1927,14
791,47	2238,43
791,65	2086,88
791,83	2019,30
792,00	1918,95
792,18	1906,66
792,36	2025,44
792,53	1925,09
792,71	1916,90
792,89	2076,64
793,06	2209,76
793,24	2066,40
793,42	2066,40
793,59	2115,55
793,77	1992,67
793,94	1912,80
794,12	1941,47
794,30	1992,67
794,47	1970,15
794,65	2037,73
794,83	1898,47
795,00	2295,77
795,18	2045,92
795,36	1996,77
795,53	1966,05
795,71	1939,43
795,88	1908,71
796,06	1902,56
796,24	2027,49
796,41	2056,16
796,59	2029,54
796,76	1857,51
796,94	1961,95
797,12	2013,15
797,29	2164,70
797,47	1947,62
797,64	1888,23
797,82	2019,30
798,00	2076,64
798,17	1978,34
798,35	1920,99
798,52	2217,95
798,70	1900,52
798,88	1865,70
799,05	1869,80
799,23	2062,30
799,40	1986,53
799,58	2043,87
799,76	1953,76
799,93	2205,66
800,11	2000,87
800,28	1970,15
800,46	2150,37
800,63	2041,82
800,81	1955,81
800,99	1933,28
801,16	1908,71
801,34	2037,73
801,51	1937,38
801,69	1959,91
801,86	1943,52
802,04	1951,71
802,22	2072,54
802,39	1968,10
802,57	1935,33
802,74	2002,91
802,92	1988,58
803,09	1902,56
803,27	1894,37
803,44	2150,37
803,62	2043,87
803,79	2031,58
803,97	1935,33
804,15	2019,30
804,32	2031,58
804,50	1906,66
804,67	2021,35
804,85	1982,43
805,02	2039,78
805,20	1972,19
805,37	1990,63
805,55	2023,39
805,72	2027,49
805,90	1923,04
806,07	1873,89
806,25	1986,53
806,42	2187,23
806,60	1957,86
806,77	1865,70
806,95	2181,09
807,13	2011,11
807,30	1984,48
807,48	2023,39
807,65	1966,05
807,83	1896,42
808,00	1906,66
808,18	2082,78
808,35	2291,68
808,53	2117,60
808,70	2011,11
808,88	1945,57
809,05	2156,51
809,23	2080,74
809,40	1964,00
809,57	1996,77
809,75	2154,46
809,92	2181,09
810,10	2021,35
810,27	2043,87
810,45	2103,26
810,62	2197,47
810,80	2172,89
810,97	2025,44
811,15	2273,25
811,32	2234,33
811,50	2039,78
811,67	2236,38
811,85	1957,86
812,02	2213,85
812,20	2056,16
812,37	1896,42
812,55	2191,33
812,72	2129,89
812,89	1933,28
813,07	1910,75
813,24	2078,69
813,42	2068,45
813,59	1953,76
813,77	1890,28
813,94	2150,37
814,12	2023,39
814,29	1945,57
814,47	2015,20
814,64	2019,30
814,81	1994,72
814,99	2074,59
815,16	1949,67
815,34	2033,63
815,51	2064,35
815,69	1937,38
815,86	2047,97
816,03	2029,54
816,21	1939,43
816,38	1927,14
816,56	1984,48
816,73	1982,43
816,91	2160,61
817,08	2041,82
817,25	1949,67
817,43	2023,39
817,60	1996,77
817,78	1925,09
817,95	1908,71
818,12	2226,14
818,30	2099,17
818,47	1920,99
818,65	1972,19
818,82	1959,91
818,99	2230,24
819,17	1904,61
819,34	1902,56
819,52	1992,67
819,69	2068,45
819,86	1902,56
820,04	1859,56
820,21	1812,45
820,39	2074,59
820,56	1929,19
820,73	1931,23
820,91	2068,45
821,08	1914,85
821,25	1943,52
821,43	2043,87
821,60	1927,14
821,78	1972,19
821,95	1816,55
822,12	1935,33
822,30	2183,13
822,47	1898,47
822,64	2015,20
822,82	1992,67
822,99	1961,95
823,17	1937,38
823,34	1910,75
823,51	1931,23
823,69	2097,12
823,86	1908,71
824,03	1972,19
824,21	1863,65
824,38	1959,91
824,55	2047,97
824,73	1957,86
824,90	1966,05
825,07	1941,47
825,25	2140,13
825,42	1970,15
825,59	1968,10
825,77	1970,15
825,94	2064,35
826,11	1964,00
826,29	2007,01
826,46	2029,54
826,63	1890,28
826,81	1927,14
826,98	2058,21
827,15	1980,39
827,33	1837,03
827,50	1904,61
827,67	2029,54
827,85	1996,77
828,02	1951,71
828,19	1949,67
828,36	1900,52
828,54	2047,97
828,71	1834,98
828,88	1871,84
829,06	2000,87
829,23	2117,60
829,40	1943,52
829,58	1966,05
829,75	1935,33
829,92	2090,98
830,09	1900,52
830,27	2004,96
830,44	1910,75
830,61	2174,94
830,79	2015,20
830,96	2043,87
831,13	2027,49
831,30	1910,75
831,48	1884,13
831,65	1935,33
831,82	1824,74
832,00	2002,91
832,17	2174,94
832,34	1865,70
832,51	1802,21
832,69	2009,06
832,86	1843,17
833,03	1771,49
833,20	1826,79
833,38	2074,59
833,55	1951,71
833,72	1853,41
833,89	1851,36
834,07	2070,50
834,24	1996,77
834,41	1814,50
834,58	1837,03
834,76	1966,05
834,93	2062,30
835,10	1857,51
835,27	1834,98
835,45	1939,43
835,62	1877,99
835,79	1800,16
835,96	1773,54
836,14	1959,91
836,31	1925,09
836,48	1826,79
836,65	1769,44
836,83	2123,74
837,00	1955,81
837,17	1824,74
837,34	1802,21
837,51	1880,04
837,69	1976,29
837,86	1679,33
838,03	1796,07
838,20	1988,58
838,37	2037,73
838,55	1777,64
838,72	1865,70
838,89	1966,05
839,06	1996,77
839,23	1892,32
839,41	1820,64
839,58	1996,77
839,75	2043,87
839,92	1849,32
840,09	1841,12
840,27	2160,61
840,44	2027,49
840,61	1892,32
840,78	1775,59
840,95	2019,30
841,13	2066,40
841,30	1904,61
841,47	1798,12
841,64	2115,55
841,81	2097,12
841,98	1992,67
842,16	1798,12
842,33	2209,76
842,50	2097,12
842,67	1957,86
842,84	1820,64
843,01	1964,00
843,19	2058,21
843,36	1945,57
843,53	1787,88
843,70	2129,89
843,87	1943,52
844,04	1822,69
844,22	1875,94
844,39	1976,29
844,56	2009,06
844,73	1816,55
844,90	1736,68
845,07	1964,00
845,24	2033,63
845,42	1816,55
845,59	1892,32
845,76	2138,08
845,93	1873,89
846,10	1892,32
846,27	1871,84
846,44	2039,78
846,62	1992,67
846,79	1794,02
846,96	1708,01
847,13	2181,09
847,30	2054,11
847,47	1865,70
847,64	1759,21
847,81	2101,22
847,98	2052,06
848,16	1847,27
848,33	1902,56
848,50	1947,62
848,67	1925,09
848,84	1798,12
849,01	1769,44
849,18	1941,47
849,35	1976,29
849,52	1728,49
849,70	1759,21
849,87	2191,33
850,04	2099,17
850,21	1857,51
850,38	1783,78
850,55	2050,02
850,72	1970,15
850,89	1877,99
851,06	1773,54
851,23	2146,27
851,40	2015,20
851,57	1837,03
851,75	1873,89
851,92	1867,75
852,09	2015,20
852,26	1785,83
852,43	1783,78
852,60	2226,14
852,77	2054,11
852,94	1834,98
853,11	1861,60
853,28	2129,89
853,45	1880,04
853,62	1730,53
853,79	1837,03
853,96	2099,17
854,13	2027,49
854,30	1820,64
854,48	1693,67
854,65	2064,35
854,82	2101,22
854,99	1759,21
855,16	1841,12
855,33	2002,91
855,50	2123,74
855,67	1820,64
855,84	1832,93
856,01	1806,31
856,18	1951,71
856,35	1845,22
856,52	1769,44
856,69	2070,50
856,86	2000,87
857,03	1941,47
857,20	1673,19
857,37	2015,20
857,54	2019,30
857,71	1826,79
857,88	1722,34
858,05	2090,98
858,22	2058,21
858,39	1832,93
858,56	1738,73
858,73	2004,96
858,90	2101,22
859,07	1794,02
859,24	1816,55
859,41	1945,57
859,58	2045,92
859,75	1673,19
859,92	1845,22
860,09	2125,79
860,26	2080,74
860,43	1759,21
860,60	1763,30
860,77	1951,71
860,94	2019,30
861,11	1718,25
861,28	1906,66
861,45	2088,93
861,62	2052,06
861,79	1837,03
861,96	1781,73
862,13	2004,96
862,30	2041,82
862,47	1726,44
862,64	1855,46
862,81	1957,86
862,98	2031,58
863,15	1832,93
863,32	1855,46
863,49	2154,46
863,66	2082,78
863,82	1685,48
863,99	1849,32
864,16	2117,60
864,33	2045,92
864,50	1802,21
864,67	1843,17
864,84	2078,69
865,01	2015,20
865,18	1710,05
865,35	1837,03
865,52	1964,00
865,69	2107,36
865,86	1695,72
866,03	1910,75
866,20	1900,52
866,37	1937,38
866,54	1775,59
866,70	1738,73
866,87	2105,31
867,04	1984,48
867,21	1697,77
867,38	1748,97
867,55	2027,49
867,72	2066,40
867,89	1849,32
868,06	1740,77
868,23	2136,03
868,40	2058,21
868,56	1775,59
868,73	1771,49
868,90	1845,22
869,07	2064,35
869,24	1855,46
869,41	1724,39
869,58	1861,60
869,75	1904,61
869,92	1796,07
870,09	1814,50
870,25	2082,78
870,42	1916,90
870,59	1748,97
870,76	1787,88
870,93	1830,88
871,10	1959,91
871,27	1757,16
871,44	1892,32
871,60	2052,06
871,77	2070,50
871,94	1744,87
872,11	1763,30
872,28	1972,19
872,45	2203,61
872,62	1785,83
872,79	1845,22
872,95	2074,59
873,12	2047,97
873,29	1693,67
873,46	1877,99
873,63	1945,57
873,80	1898,47
873,96	1769,44
874,13	1812,45
874,30	2050,02
874,47	2101,22
874,64	1787,88
874,81	1806,31
874,98	1955,81
875,14	1964,00
875,31	1796,07
875,48	1687,53
875,65	2019,30
875,82	2043,87
875,99	1763,30
876,15	1742,82
876,32	2234,33
876,49	2023,39
876,66	1714,15
876,83	1861,60
876,99	2052,06
877,16	2007,01
877,33	1839,08
877,50	1857,51
877,67	1925,09
877,83	1982,43
878,00	1816,55
878,17	1701,86
878,34	1992,67
878,51	2041,82
878,68	1779,68
878,84	1646,57
879,01	2004,96
879,18	2125,79
879,35	1763,30
879,51	1781,73
879,68	2168,80
879,85	1927,14
880,02	1781,73
880,19	1798,12
880,35	2013,15
880,52	1984,48
880,69	1851,36
880,86	1685,48
881,02	2039,78
881,19	1947,62
881,36	1757,16
881,53	1738,73
881,70	2131,94
881,86	2039,78
882,03	1847,27
882,20	1755,11
882,37	2090,98
882,53	2080,74
882,70	1761,25
882,87	1763,30
883,04	1951,71
883,20	2111,46
883,37	1703,91
883,54	1746,92
883,71	1984,48
883,87	1906,66
884,04	1728,49
884,21	1730,53
884,38	2164,70
884,54	2226,14
884,71	1710,05
884,88	1660,90
885,05	2019,30
885,21	2072,54
885,38	1812,45
885,55	1865,70
885,71	2011,11
885,88	1886,18
886,05	1839,08
886,22	1705,96
886,38	1990,63
>>>>>End Processed Spectral Data<<<<<
