Time,Channel A
(ms),(V)

-0.00108200,0.47029020
0.00019800,1.00894200
0.00147800,1.63792800
0.00275800,2.17719100
0.00403800,2.80587200
0.00531800,3.25510400
0.00659800,3.79436600
0.00787800,4.24359900
0.00915800,4.69252600
0.01043800,5.14175800
0.01171800,5.50126600
0.01299800,5.86077500
0.01427800,6.21997700
0.01555800,6.48945600
0.01683800,6.84896400
0.01811800,7.02871800
0.01939800,7.20816700
0.02067800,7.38792100
0.02195800,7.56767500
0.02323800,7.56767500
0.02451800,7.65739900
0.02579800,7.74742900
0.02707800,7.65739900
0.02835800,7.65739900
0.02963800,7.56767500
0.03091800,7.47795100
0.03219800,7.29819600
0.03347800,7.11844300
0.03475800,6.93868800
0.03603800,6.75893400
0.03731800,6.48945600
0.03859800,6.21997700
0.03987800,5.86077500
0.04115800,5.59099100
0.04243800,5.32151300
0.04371800,4.96231000
0.04499800,4.60280200
0.04627800,4.33332300
0.04755800,3.88409100
0.04883800,3.52458300
0.05011800,3.16538000
0.05139800,2.80587200
0.05267800,2.44666900
0.05395800,2.08716100
0.05523800,1.72795800
0.05651800,1.36845000
0.05779800,0.91921750
0.05907800,0.64973910
0.06035800,0.29053620
0.06163800,-0.06866664
0.06291800,-0.33814510
0.06419800,-0.60792870
0.06547800,-0.78737750
0.06675800,-1.14688600
0.06803800,-1.32664000
0.06931800,-1.50608800
0.07059800,-1.68584300
0.07187800,-1.86559700
0.07315800,-2.04535100
0.07443800,-2.13507500
0.07571800,-2.22510500
0.07699800,-2.31482900
0.07827800,-2.40455300
0.07955800,-2.40455300
0.08083800,-2.49458300
0.08211800,-2.49458300
0.08339800,-2.49458300
0.08467800,-2.49458300
0.08595800,-2.40455300
0.08723800,-2.31482900
0.08851800,-2.22510500
0.08979800,-2.13507500
0.09107800,-2.13507500
0.09235800,-1.95532100
0.09363800,-1.86559700
0.09491800,-1.77587200
0.09619800,-1.59611800
0.09747800,-1.50608800
0.09875800,-1.41636400
0.10003800,-1.23661000
0.10131800,-1.14688600
0.10259800,-1.05716100
0.10387800,-0.87740710
0.10515800,-0.78737750
0.10643800,-0.69765310
0.10771800,-0.60792870
0.10899800,-0.51789910
0.11027800,-0.42817470
0.11155800,-0.33814510
0.11283800,-0.33814510
0.11411800,-0.33814510
0.11539800,-0.24842070
0.11667800,-0.24842070
0.11795800,-0.24842070
0.11923800,-0.24842070
0.12051800,-0.33814510
0.12179800,-0.33814510
0.12307800,-0.42817470
0.12435800,-0.42817470
0.12563800,-0.60792870
0.12691800,-0.69765310
0.12819800,-0.78737750
0.12947800,-0.96713160
0.13075800,-1.05716100
0.13203800,-1.23661000
0.13331800,-1.41636400
0.13459800,-1.50608800
0.13587800,-1.68584300
0.13715800,-1.95532100
0.13843800,-2.13507500
0.13971800,-2.31482900
0.14099800,-2.40455300
0.14227800,-2.58430700
0.14355800,-2.76406100
0.14483800,-2.94381500
0.14611800,-3.21329400
0.14739800,-3.30301800
0.14867800,-3.48277200
0.14995800,-3.57249700
0.15123800,-3.66252600
0.15251800,-3.84228000
0.15379800,-3.93200500
0.15507800,-4.02172900
0.15635800,-4.11175900
0.15763800,-4.11175900
0.15891800,-4.20148300
0.16019800,-4.11175900
0.16147800,-4.11175900
0.16275800,-4.11175900
0.16403800,-4.11175900
0.16531800,-4.02172900
0.16659800,-3.93200500
0.16787800,-3.75225100
0.16915800,-3.66252600
0.17043800,-3.48277200
0.17171800,-3.30301800
0.17299800,-3.03354000
0.17427800,-2.85378600
0.17555800,-2.49458300
0.17683800,-2.22510500
0.17811800,-1.95532100
0.17939800,-1.59611800
0.18067800,-1.32664000
0.18195800,-0.96713160
0.18323800,-0.60792870
0.18451800,-0.24842070
0.18579800,0.11108740
0.18707800,0.56001470
0.18835800,0.91921750
0.18963800,1.36845000
0.19091800,1.81768200
0.19219800,2.17719100
0.19347800,2.62611800
0.19475800,3.07535000
0.19603800,3.43485800
0.19731800,3.88409100
0.19859800,4.24359900
0.19987800,4.60280200
0.20115800,4.96231000
0.20243800,5.32151300
0.20371800,5.68102100
0.20499800,5.95049900
0.20627800,6.31000700
0.20755800,6.57948500
0.20883800,6.75893400
0.21011800,7.02871800
0.21139800,7.20816700
0.21267800,7.47795100
0.21395800,7.47795100
0.21523800,7.65739900
0.21651800,7.74742900
0.21779800,7.74742900
0.21907800,7.83715300
0.22035800,7.74742900
0.22163800,7.65739900
0.22291800,7.65739900
0.22419800,7.56767500
0.22547800,7.38792100
0.22675800,7.20816700
0.22803800,6.93868800
0.22931800,6.66921000
0.23059800,6.48945600
0.23187800,6.13025300
0.23315800,5.77074500
0.23443800,5.41154200
0.23571800,5.05203400
0.23699800,4.69252600
0.23827800,4.24359900
0.23955800,3.79436600
0.24083800,3.34513400
0.24211800,2.89590100
0.24339800,2.35663900
0.24467800,1.90740700
0.24595800,1.36845000
0.24723800,0.82949310
0.24851800,0.38056580
0.24979800,-0.15869620
0.25107800,-0.69765310
0.25235800,-1.23661000
0.25363800,-1.77587200
0.25491800,-2.22510500
0.25619800,-2.76406100
0.25747800,-3.21329400
0.25875800,-3.66252600
0.26003800,-4.11175900
0.26131800,-4.56099100
0.26259800,-5.01022400
0.26387800,-5.36942700
0.26515800,-5.81865900
0.26643800,-6.08813800
0.26771800,-6.44764600
0.26899800,-6.71712400
0.27027800,-6.98660200
0.27155800,-7.16635700
0.27283800,-7.43583500
0.27411800,-7.61558900
0.27539800,-7.70531300
0.27667800,-7.88506700
0.27795800,-7.88506700
0.27923800,-7.88506700
0.28051800,-7.88506700
0.28179800,-7.88506700
0.28307800,-7.88506700
0.28435800,-7.70531300
0.28563800,-7.70531300
0.28691800,-7.52586500
0.28819800,-7.34611000
0.28947800,-7.16635700
0.29075800,-6.89687800
0.29203800,-6.62739900
0.29331800,-6.35792100
0.29459800,-6.08813800
0.29587800,-5.72893500
0.29715800,-5.36942700
0.29843800,-5.01022400
0.29971800,-4.65071600
0.30099800,-4.29151300
0.30227800,-3.84228000
0.30355800,-3.48277200
0.30483800,-3.03354000
0.30611800,-2.67433700
0.30739800,-2.22510500
0.30867800,-1.77587200
0.30995800,-1.41636400
0.31123800,-0.96713160
0.31251800,-0.51789910
0.31379800,-0.06866664
0.31507800,0.29053620
0.31635800,0.64973910
0.31763800,1.09897100
0.31891800,1.45817400
0.32019800,1.81768200
0.32147800,2.08716100
0.32275800,2.44666900
0.32403800,2.71614700
0.32531800,2.98562600
0.32659800,3.25510400
0.32787800,3.52458300
0.32915800,3.70433700
0.33043800,3.97381500
0.33171800,4.06384500
0.33299800,4.24359900
0.33427800,4.33332300
0.33555800,4.51307700
0.33683800,4.60280200
0.33811800,4.60280200
0.33939800,4.69252600
0.34067800,4.69252600
0.34195800,4.69252600
0.34323800,4.69252600
0.34451800,4.60280200
0.34579800,4.60280200
0.34707800,4.51307700
0.34835800,4.42304800
0.34963800,4.33332300
0.35091800,4.24359900
0.35219800,4.06384500
0.35347800,3.88409100
0.35475800,3.79436600
0.35603800,3.61461200
0.35731800,3.43485800
0.35859800,3.25510400
0.35987800,3.07535000
0.36115800,2.89590100
0.36243800,2.71614700
0.36371800,2.53639300
0.36499800,2.35663900
0.36627800,2.17719100
0.36755800,1.99743600
0.36883800,1.81768200
0.37011800,1.63792800
0.37139800,1.45817400
0.37267800,1.27872600
0.37395800,1.09897100
0.37523800,1.00894200
0.37651800,0.91921750
0.37779800,0.73946350
0.37907800,0.64973910
0.38035800,0.47029020
0.38163800,0.38056580
0.38291800,0.38056580
0.38419800,0.29053620
0.38547800,0.20081180
0.38675800,0.11108740
0.38803800,0.11108740
0.38931800,0.02105777
0.39059800,0.02105777
0.39187800,0.02105777
0.39315800,0.02105777
0.39443800,0.02105777
0.39571800,0.02105777
0.39699800,0.02105777
0.39827800,0.11108740
0.39955800,0.02105777
0.40083800,0.11108740
0.40211800,0.11108740
0.40339800,0.20081180
0.40467800,0.20081180
0.40595800,0.20081180
0.40723800,0.29053620
0.40851800,0.29053620
0.40979800,0.38056580
0.41107800,0.38056580
0.41235800,0.38056580
0.41363800,0.38056580
0.41491800,0.38056580
0.41619800,0.38056580
0.41747800,0.38056580
0.41875800,0.38056580
0.42003800,0.38056580
0.42131800,0.29053620
0.42259800,0.29053620
0.42387800,0.29053620
0.42515800,0.11108740
0.42643800,0.02105777
0.42771800,0.02105777
0.42899800,-0.06866664
0.43027800,-0.24842070
0.43155800,-0.33814510
0.43283800,-0.42817470
0.43411800,-0.60792870
0.43539800,-0.69765310
0.43667800,-0.87740710
0.43795800,-1.05716100
0.43923800,-1.23661000
0.44051800,-1.41636400
0.44179800,-1.59611800
0.44307800,-1.77587200
0.44435800,-1.95532100
0.44563800,-2.13507500
0.44691800,-2.31482900
0.44819800,-2.58430700
0.44947800,-2.67433700
0.45075800,-2.94381500
0.45203800,-3.12356900
0.45331800,-3.30301800
0.45459800,-3.48277200
0.45587800,-3.66252600
0.45715800,-3.75225100
0.45843800,-3.93200500
0.45971800,-4.02172900
0.46099800,-4.20148300
0.46227800,-4.29151300
0.46355800,-4.38123700
0.46483800,-4.47096200
0.46611800,-4.65071600
0.46739800,-4.65071600
0.46867800,-4.65071600
0.46995800,-4.74074500
0.47123800,-4.74074500
0.47251800,-4.74074500
0.47379800,-4.65071600
0.47507800,-4.56099100
0.47635800,-4.47096200
0.47763800,-4.38123700
0.47891800,-4.29151300
0.48019800,-4.11175900
0.48147800,-3.93200500
0.48275800,-3.84228000
0.48403800,-3.57249700
0.48531800,-3.39304800
0.48659800,-3.12356900
0.48787800,-2.94381500
0.48915800,-2.58430700
0.49043800,-2.31482900
0.49171800,-2.04535100
0.49299800,-1.68584300
0.49427800,-1.41636400
0.49555800,-0.96713160
0.49683800,-0.69765310
0.49811800,-0.33814510
0.49939800,0.11108740
0.50067800,0.38056580
0.50195800,0.82949310
0.50323800,1.18869600
0.50451800,1.54820400
0.50579800,1.90740700
0.50707800,2.35663900
0.50835800,2.71614700
0.50963800,3.07535000
0.51091800,3.43485800
0.51219800,3.79436600
0.51347800,4.06384500
0.51475800,4.33332300
0.51603800,4.69252600
0.51731800,4.96231000
0.51859800,5.23178800
0.51987800,5.41154200
0.52115800,5.77074500
0.52243800,5.95049900
0.52371800,6.13025300
0.52499800,6.31000700
0.52627800,6.39973200
0.52755800,6.48945600
0.52883800,6.66921000
0.53011800,6.66921000
0.53139800,6.75893400
0.53267800,6.75893400
0.53395800,6.75893400
0.53523800,6.66921000
0.53651800,6.57948500
0.53779800,6.48945600
0.53907800,6.39973200
0.54035800,6.31000700
0.54163800,6.13025300
0.54291800,5.86077500
0.54419800,5.68102100
0.54547800,5.41154200
0.54675800,5.14175800
0.54803800,4.87228000
0.54931800,4.60280200
0.55059800,4.24359900
0.55187800,3.97381500
0.55315800,3.61461200
0.55443800,3.25510400
0.55571800,2.89590100
0.55699800,2.44666900
0.55827800,2.08716100
0.55955800,1.72795800
0.56083800,1.27872600
0.56211800,0.82949310
0.56339800,0.47029020
0.56467800,0.02105777
0.56595800,-0.33814510
0.56723800,-0.78737750
0.56851800,-1.14688600
0.56979800,-1.50608800
0.57107800,-1.86559700
0.57235800,-2.31482900
0.57363800,-2.58430700
0.57491800,-2.94381500
0.57619800,-3.30301800
0.57747800,-3.57249700
0.57875800,-3.93200500
0.58003800,-4.20148300
0.58131800,-4.47096200
0.58259800,-4.65071600
0.58387800,-4.92019400
0.58515800,-5.09994800
0.58643800,-5.27970200
0.58771800,-5.36942700
0.58899800,-5.54918100
0.59027800,-5.63890500
0.59155800,-5.72893500
0.59283800,-5.81865900
0.59411800,-5.81865900
0.59539800,-5.81865900
0.59667800,-5.81865900
0.59795800,-5.72893500
0.59923800,-5.72893500
0.60051800,-5.63890500
0.60179800,-5.54918100
0.60307800,-5.36942700
0.60435800,-5.27970200
0.60563800,-5.09994800
0.60691800,-5.01022400
0.60819800,-4.74074500
0.60947800,-4.56099100
0.61075800,-4.38123700
0.61203800,-4.11175900
0.61331800,-3.93200500
0.61459800,-3.66252600
0.61587800,-3.48277200
0.61715800,-3.21329400
0.61843800,-2.94381500
0.61971800,-2.67433700
0.62099800,-2.40455300
0.62227800,-2.13507500
0.62355800,-1.86559700
0.62483800,-1.59611800
0.62611800,-1.32664000
0.62739800,-1.05716100
0.62867800,-0.78737750
0.62995800,-0.51789910
0.63123800,-0.33814510
0.63251800,-0.06866664
0.63379800,0.20081180
0.63507800,0.38056580
0.63635800,0.64973910
0.63763800,0.82949310
0.63891800,1.00894200
0.64019800,1.18869600
0.64147800,1.36845000
0.64275800,1.54820400
0.64403800,1.72795800
0.64531800,1.81768200
0.64659800,1.90740700
0.64787800,1.99743600
0.64915800,2.08716100
0.65043800,2.17719100
0.65171800,2.26691500
0.65299800,2.26691500
0.65427800,2.35663900
0.65555800,2.35663900
0.65683800,2.44666900
0.65811800,2.44666900
0.65939800,2.44666900
0.66067800,2.44666900
0.66195800,2.44666900
0.66323800,2.44666900
0.66451800,2.35663900
0.66579800,2.35663900
0.66707800,2.35663900
0.66835800,2.26691500
0.66963800,2.17719100
0.67091800,2.17719100
0.67219800,2.08716100
0.67347800,2.08716100
0.67475800,1.99743600
0.67603800,1.99743600
0.67731800,1.90740700
0.67859800,1.81768200
0.67987800,1.81768200
0.68115800,1.72795800
0.68243800,1.72795800
0.68371800,1.63792800
0.68499800,1.63792800
0.68627800,1.54820400
0.68755800,1.54820400
0.68883800,1.45817400
0.69011800,1.45817400
0.69139800,1.45817400
0.69267800,1.45817400
0.69395800,1.45817400
0.69523800,1.45817400
0.69651800,1.45817400
0.69779800,1.45817400
0.69907800,1.45817400
0.70035800,1.45817400
0.70163800,1.45817400
0.70291800,1.45817400
0.70419800,1.54820400
0.70547800,1.54820400
0.70675800,1.63792800
0.70803800,1.63792800
0.70931800,1.63792800
0.71059800,1.63792800
0.71187800,1.63792800
0.71315800,1.72795800
0.71443800,1.72795800
0.71571800,1.72795800
0.71699800,1.72795800
0.71827800,1.72795800
0.71955800,1.72795800
0.72083800,1.72795800
0.72211800,1.72795800
0.72339800,1.63792800
0.72467800,1.63792800
0.72595800,1.54820400
0.72723800,1.54820400
0.72851800,1.45817400
0.72979800,1.45817400
0.73107800,1.36845000
0.73235800,1.27872600
0.73363800,1.18869600
0.73491800,1.00894200
0.73619800,0.91921750
0.73747800,0.82949310
0.73875800,0.64973910
0.74003800,0.56001470
0.74131800,0.38056580
0.74259800,0.29053620
0.74387800,0.02105777
0.74515800,-0.06866664
0.74643800,-0.33814510
0.74771800,-0.42817470
0.74899800,-0.69765310
0.75027800,-0.87740710
0.75155800,-1.05716100
0.75283800,-1.23661000
0.75411800,-1.50608800
0.75539800,-1.68584300
0.75667800,-1.86559700
0.75795800,-2.13507500
0.75923800,-2.31482900
0.76051800,-2.58430700
0.76179800,-2.76406100
0.76307800,-2.94381500
0.76435800,-3.21329400
0.76563800,-3.39304800
0.76691800,-3.57249700
0.76819800,-3.66252600
0.76947800,-3.93200500
0.77075800,-4.02172900
0.77203800,-4.11175900
0.77331800,-4.29151300
0.77459800,-4.38123700
0.77587800,-4.47096200
0.77715800,-4.56099100
0.77843800,-4.65071600
0.77971800,-4.74074500
0.78099800,-4.83047000
0.78227800,-4.83047000
0.78355800,-4.83047000
0.78483800,-4.83047000
0.78611800,-4.74074500
0.78739800,-4.74074500
0.78867800,-4.65071600
0.78995800,-4.47096200
0.79123800,-4.38123700
0.79251800,-4.29151300
0.79379800,-4.11175900
0.79507800,-4.02172900
0.79635800,-3.84228000
0.79763800,-3.66252600
0.79891800,-3.48277200
0.80019800,-3.21329400
0.80147800,-2.94381500
0.80275800,-2.76406100
0.80403800,-2.49458300
0.80531800,-2.13507500
0.80659800,-1.86559700
0.80787800,-1.59611800
0.80915800,-1.32664000
0.81043800,-1.05716100
0.81171800,-0.69765310
0.81299800,-0.33814510
0.81427800,0.02105777
0.81555799,0.29053620
0.81683799,0.64973910
0.81811799,1.00894200
0.81939799,1.27872600
0.82067799,1.63792800
0.82195799,1.99743600
0.82323799,2.26691500
0.82451799,2.53639300
0.82579799,2.89590100
0.82707799,3.16538000
0.82835799,3.43485800
0.82963799,3.70433700
0.83091799,3.97381500
0.83219799,4.24359900
0.83347799,4.42304800
0.83475799,4.60280200
0.83603799,4.78255600
0.83731799,4.96231000
0.83859799,5.05203400
0.83987799,5.23178800
0.84115799,5.32151300
0.84243799,5.41154200
0.84371799,5.50126600
0.84499799,5.50126600
0.84627799,5.59099100
0.84755799,5.59099100
0.84883799,5.59099100
0.85011799,5.50126600
0.85139799,5.41154200
0.85267799,5.41154200
0.85395799,5.32151300
0.85523799,5.23178800
0.85651799,5.05203400
0.85779799,4.96231000
0.85907799,4.69252600
0.86035799,4.51307700
0.86163799,4.33332300
0.86291799,4.15356900
0.86419799,3.88409100
0.86547799,3.61461200
0.86675799,3.43485800
0.86803799,3.16538000
0.86931799,2.80587200
0.87059799,2.53639300
0.87187799,2.26691500
0.87315799,1.99743600
0.87443799,1.72795800
0.87571799,1.45817400
0.87699799,1.09897100
0.87827799,0.73946350
0.87955799,0.47029020
0.88083799,0.20081180
0.88211799,-0.06866664
0.88339799,-0.42817470
0.88467799,-0.69765310
0.88595799,-0.96713160
0.88723799,-1.23661000
0.88851799,-1.50608800
0.88979799,-1.77587200
0.89107799,-1.95532100
0.89235799,-2.22510500
0.89363799,-2.49458300
0.89491799,-2.67433700
0.89619799,-2.85378600
0.89747799,-2.94381500
0.89875799,-3.21329400
0.90003799,-3.30301800
0.90131799,-3.48277200
0.90259799,-3.57249700
0.90387799,-3.66252600
0.90515799,-3.75225100
0.90643799,-3.84228000
0.90771799,-3.93200500
0.90899799,-3.93200500
0.91027799,-3.93200500
0.91155799,-3.93200500
0.91283799,-4.02172900
0.91411799,-3.93200500
0.91539799,-3.93200500
0.91667799,-3.93200500
0.91795799,-3.84228000
0.91923799,-3.75225100
0.92051799,-3.75225100
0.92179799,-3.57249700
0.92307799,-3.57249700
0.92435799,-3.39304800
0.92563799,-3.39304800
0.92691799,-3.21329400
0.92819799,-3.12356900
0.92947799,-2.94381500
0.93075799,-2.85378600
0.93203799,-2.67433700
0.93331799,-2.49458300
0.93459799,-2.49458300
0.93587799,-2.22510500
0.93715799,-2.13507500
0.93843799,-1.95532100
0.93971799,-1.77587200
0.94099799,-1.59611800
0.94227799,-1.50608800
0.94355799,-1.32664000
0.94483799,-1.14688600
0.94611799,-1.05716100
0.94739799,-0.96713160
0.94867799,-0.78737750
0.94995799,-0.69765310
0.95123799,-0.51789910
0.95251799,-0.42817470
0.95379799,-0.33814510
0.95507799,-0.24842070
0.95635799,-0.06866664
0.95763799,-0.06866664
0.95891799,0.02105777
0.96019799,0.11108740
0.96147799,0.20081180
0.96275799,0.38056580
0.96403799,0.38056580
0.96531799,0.38056580
0.96659799,0.47029020
0.96787799,0.56001470
0.96915799,0.64973910
0.97043799,0.64973910
0.97171799,0.73946350
0.97299799,0.73946350
0.97427799,0.73946350
0.97555799,0.82949310
0.97683799,0.82949310
0.97811799,0.91921750
0.97939799,0.91921750
0.98067799,0.91921750
0.98195799,1.00894200
0.98323799,1.00894200
0.98451799,1.00894200
0.98579799,1.00894200
0.98707799,1.09897100
0.98835799,1.09897100
0.98963799,1.18869600
0.99091799,1.18869600
0.99219799,1.27872600
0.99347799,1.27872600
0.99475799,1.36845000
0.99603799,1.36845000
0.99731799,1.45817400
0.99859799,1.45817400
0.99987799,1.45817400
1.00115799,1.63792800
1.00243799,1.63792800
1.00371799,1.72795800
1.00499799,1.72795800
1.00627799,1.81768200
1.00755799,1.81768200
1.00883799,1.90740700
1.01011799,1.99743600
1.01139799,2.08716100
1.01267799,2.08716100
1.01395799,2.17719100
1.01523799,2.17719100
1.01651799,2.26691500
1.01779799,2.26691500
1.01907799,2.35663900
1.02035799,2.44666900
1.02163799,2.44666900
1.02291799,2.53639300
1.02419799,2.53639300
1.02547799,2.53639300
1.02675799,2.53639300
1.02803799,2.53639300
1.02931799,2.53639300
1.03059799,2.53639300
1.03187799,2.53639300
1.03315799,2.53639300
1.03443799,2.53639300
1.03571799,2.53639300
1.03699799,2.53639300
1.03827799,2.44666900
1.03955799,2.35663900
1.04083799,2.26691500
1.04211799,2.17719100
1.04339799,2.08716100
1.04467799,2.08716100
1.04595799,1.90740700
1.04723799,1.81768200
1.04851799,1.63792800
1.04979799,1.45817400
1.05107799,1.36845000
1.05235799,1.18869600
1.05363799,1.00894200
1.05491799,0.82949310
1.05619799,0.64973910
1.05747799,0.56001470
1.05875799,0.29053620
1.06003799,0.02105777
1.06131799,-0.06866664
1.06259799,-0.33814510
1.06387799,-0.51789910
1.06515799,-0.78737750
1.06643799,-0.96713160
1.06771799,-1.14688600
1.06899799,-1.41636400
1.07027799,-1.59611800
1.07155799,-1.86559700
1.07283799,-2.13507500
1.07411799,-2.31482900
1.07539799,-2.49458300
1.07667799,-2.67433700
1.07795799,-2.85378600
1.07923799,-3.03354000
1.08051799,-3.30301800
1.08179799,-3.39304800
1.08307799,-3.57249700
1.08435799,-3.75225100
1.08563799,-3.93200500
1.08691799,-4.02172900
1.08819799,-4.11175900
1.08947799,-4.29151300
1.09075799,-4.29151300
1.09203799,-4.38123700
1.09331799,-4.47096200
1.09459799,-4.47096200
1.09587799,-4.47096200
1.09715799,-4.56099100
1.09843799,-4.47096200
1.09971799,-4.47096200
1.10099799,-4.47096200
1.10227799,-4.38123700
1.10355799,-4.29151300
1.10483799,-4.29151300
1.10611799,-4.11175900
1.10739799,-4.02172900
1.10867799,-3.93200500
1.10995799,-3.75225100
1.11123799,-3.57249700
1.11251799,-3.39304800
1.11379799,-3.21329400
1.11507799,-3.03354000
1.11635799,-2.85378600
1.11763799,-2.58430700
1.11891799,-2.40455300
1.12019799,-2.13507500
1.12147799,-1.86559700
1.12275799,-1.59611800
1.12403799,-1.41636400
1.12531799,-1.14688600
1.12659799,-0.78737750
1.12787799,-0.51789910
1.12915799,-0.33814510
1.13043799,0.02105777
1.13171799,0.29053620
1.13299799,0.56001470
1.13427799,0.73946350
