Time,Channel A
(ms),(V)

-25.00592620,-0.01828059
-25.00036620,-0.00286874
-24.99480620,0.01440474
-24.98924620,0.03442488
-24.98368620,0.05044710
-24.97812620,0.06921598
-24.97256620,0.08539079
-24.96700620,0.10266430
-24.96144620,0.11893060
-24.95588620,0.13596000
-24.95032620,0.15274510
-24.94476620,0.16977450
-24.93920620,0.18619340
-24.93364620,0.20111700
-24.92808620,0.21936700
-24.92252620,0.23477890
-24.91696620,0.24970240
-24.91140620,0.26511430
-24.90584620,0.27866450
-24.90028620,0.29346600
-24.89472620,0.30701620
-24.88916620,0.32105470
-24.88360620,0.33359780
-24.87804620,0.34791100
-24.87248620,0.36021000
-24.86692620,0.37226480
-24.86136621,0.38258000
-24.85580621,0.39414660
-24.85024621,0.40583520
-24.84468621,0.41453290
-24.83912621,0.42573320
-24.83356621,0.43317970
-24.82800621,0.44410540
-24.82244621,0.44920190
-24.81688621,0.45741140
-24.81132621,0.46736050
-24.80576621,0.46934420
-24.80020621,0.47791980
-24.79464621,0.48240610
-24.78908621,0.48786890
-24.78352621,0.48786890
-24.77796621,0.49421670
-24.77240621,0.49519330
-24.76684621,0.49943540
-24.76128621,0.50053410
-24.75572621,0.50178530
-24.75016621,0.50227360
-24.74460621,0.50154120
-24.73904621,0.50279240
-24.73348621,0.50016780
-24.72792621,0.49879450
-24.72236621,0.49259920
-24.71680621,0.49061550
-24.71124621,0.48661760
-24.70568621,0.48191780
-24.70012621,0.48078860
-24.69456621,0.47294530
-24.68900621,0.46809290
-24.68344621,0.46076850
-24.67788621,0.45307780
-24.67232621,0.44672990
-24.66676621,0.43629260
-24.66120621,0.42658770
-24.65564621,0.41825620
-24.65008621,0.40757470
-24.64452621,0.39515370
-24.63896621,0.38670000
-24.63340621,0.37400430
-24.62784621,0.36506240
-24.62228621,0.34827720
-24.61672621,0.33634450
-24.61116621,0.32627340
-24.60560621,0.31186860
-24.60004621,0.29831840
-24.59448621,0.28302870
-24.58892621,0.26810510
-24.58336621,0.25180820
-24.57780621,0.23902100
-24.57224621,0.22434160
-24.56668621,0.20682390
-24.56112621,0.19241920
-24.55556621,0.17203280
-24.55000621,0.15536970
-24.54444621,0.13907290
-24.53888621,0.12442400
-24.53332621,0.10849330
-24.52776621,0.09146398
-24.52220621,0.07208472
-24.51664621,0.05493332
-24.51108621,0.03726310
-24.50552621,0.02209540
-24.49996621,0.00186163
-24.49440621,-0.01467940
-24.48884621,-0.03195288
-24.48328621,-0.04849391
-24.47772621,-0.06576739
-24.47216621,-0.08429212
-24.46660621,-0.09982605
-24.46104621,-0.11871700
-24.45548622,-0.13412890
-24.44992622,-0.15103610
-24.44436622,-0.16882840
-24.43880622,-0.18485060
-24.43324622,-0.20163580
-24.42768622,-0.21765800
-24.42212622,-0.23346660
-24.41656622,-0.24674210
-24.41100622,-0.26081120
-24.40544622,-0.27808470
-24.39988622,-0.29200110
-24.39432622,-0.30555130
-24.38876622,-0.31897950
-24.38320622,-0.33164470
-24.37764622,-0.34421830
-24.37208622,-0.35874510
-24.36652622,-0.36719870
-24.36096622,-0.38001650
-24.35540622,-0.39231540
-24.34984622,-0.40400400
-24.34428622,-0.41343420
-24.33872622,-0.42313910
-24.33316622,-0.43171480
-24.32760622,-0.43980220
-24.32204622,-0.44911040
-24.31648622,-0.45521410
-24.31092622,-0.46253850
-24.30536622,-0.46986300
-24.29980622,-0.47398300
-24.29424622,-0.47782830
-24.28868622,-0.48429820
-24.28312622,-0.48915070
-24.27756622,-0.49052400
-24.27200622,-0.49360640
-24.26644622,-0.49797050
-24.26088622,-0.49635300
-24.25532622,-0.49922180
-24.24976622,-0.49870300
-24.24420622,-0.49946590
-24.23864622,-0.49772640
-24.23308622,-0.49809260
-24.22752622,-0.49324010
-24.22196622,-0.49226360
-24.21640622,-0.49024930
-24.21084622,-0.48405410
-24.20528622,-0.47782830
-24.19972622,-0.47508160
-24.19416622,-0.46937470
-24.18860622,-0.46415600
-24.18304622,-0.45619070
-24.17748622,-0.44874420
-24.17192622,-0.44077880
-24.16636622,-0.43284400
-24.16080622,-0.42176580
-24.15524622,-0.41431930
-24.14968622,-0.40226450
-24.14412622,-0.39094210
-24.13856622,-0.38062690
-24.13300622,-0.36906030
-24.12744622,-0.35874510
-24.12188622,-0.34806360
-24.11632622,-0.33536790
-24.11076622,-0.31809440
-24.10520622,-0.30741300
-24.09964622,-0.29151280
-24.09408622,-0.27945800
-24.08852622,-0.26441240
-24.08296622,-0.25037380
-24.07740622,-0.23145240
-24.07184622,-0.21927550
-24.06628622,-0.20163580
-24.06072622,-0.18759730
-24.05516622,-0.17004910
-24.04960623,-0.15552230
-24.04404623,-0.13898130
-24.03848623,-0.11972410
-24.03292623,-0.10269480
-24.02736623,-0.08777124
-24.02180623,-0.06988738
-24.01624623,-0.04986724
-24.01068623,-0.03518784
-24.00512623,-0.01666311
-23.99956623,0.00210578
-23.99400623,0.01861629
-23.98844623,0.03778192
-23.98288623,0.05319376
-23.97732623,0.07159642
-23.97176623,0.08835109
-23.96620623,0.10699790
-23.96064623,0.12179940
-23.95508623,0.13858460
-23.94952623,0.15598010
-23.94396623,0.17276530
-23.93840623,0.18866540
-23.93284623,0.20435190
-23.92728623,0.22000790
-23.92172623,0.23664050
-23.91616623,0.24933620
-23.91060623,0.26749470
-23.90504623,0.28278450
-23.89948623,0.29508350
-23.89392623,0.30936610
-23.88836623,0.32502210
-23.88280623,0.33646660
-23.87724623,0.35038300
-23.87168623,0.35871460
-23.86612623,0.37141030
-23.86056623,0.38544880
-23.85500623,0.39649650
-23.84944623,0.40668960
-23.84388623,0.41712700
-23.83832623,0.42545860
-23.83276623,0.43491930
-23.82720623,0.44535660
-23.82164623,0.45094150
-23.81608623,0.46076850
-23.81052623,0.46412550
-23.80496623,0.47306740
-23.79940623,0.47743160
-23.79384623,0.48512220
-23.78828623,0.48725850
-23.78272623,0.49147010
-23.77716623,0.49433880
-23.77160623,0.49693290
-23.76604623,0.50068660
-23.76048623,0.50178530
-23.75492623,0.50129710
-23.74936623,0.50279240
-23.74380623,0.50303660
-23.73824623,0.50340280
-23.73268623,0.49806210
-23.72712623,0.49781790
-23.72156623,0.49421670
-23.71600623,0.49223300
-23.71044623,0.48649560
-23.70488623,0.48203990
-23.69932623,0.47706530
-23.69376623,0.47196870
-23.68820623,0.46299630
-23.68264623,0.45927300
-23.67708623,0.45194860
-23.67152623,0.44398330
-23.66596623,0.43540760
-23.66040623,0.42646570
-23.65484623,0.41602830
-23.64928623,0.40620140
-23.64372624,0.39649650
-23.63816624,0.38496050
-23.63260624,0.37275310
-23.62704624,0.35883660
-23.62148624,0.35126810
-23.61592624,0.33820610
-23.61036624,0.32502210
-23.60480624,0.30826750
-23.59924624,0.29383220
-23.59368624,0.28116700
-23.58812624,0.26883750
-23.58256624,0.25107580
-23.57700624,0.23627430
-23.57144624,0.21948910
-23.56588624,0.20569470
-23.56032624,0.18829920
-23.55476624,0.17053740
-23.54920624,0.15448470
-23.54364624,0.13733330
-23.53808624,0.12131110
-23.53252624,0.10501420
-23.52696624,0.08786279
-23.52140624,0.06848353
-23.51584624,0.05319376
-23.51028624,0.03579821
-23.50472624,0.01889096
-23.49916624,0.00012207
-23.49360624,-0.01504563
-23.48804624,-0.03445540
-23.48248624,-0.05221717
-23.47692624,-0.07049776
-23.47136624,-0.08566546
-23.46580624,-0.10406810
-23.46024624,-0.11859490
-23.45468624,-0.13760800
-23.44912624,-0.15488140
-23.44356624,-0.17093420
-23.43800624,-0.18735310
-23.43244624,-0.20261240
-23.42688624,-0.21878720
-23.42132624,-0.23480940
-23.41576624,-0.24787130
-23.41020624,-0.26416820
-23.40464624,-0.27893920
-23.39908624,-0.29313030
-23.39352624,-0.30741300
-23.38796624,-0.32145150
-23.38240624,-0.33524580
-23.37684624,-0.34794150
-23.37128624,-0.35963010
-23.36572624,-0.37006740
-23.36016624,-0.38187810
-23.35460624,-0.39344460
-23.34904624,-0.40299690
-23.34348624,-0.41383100
-23.33792624,-0.42500080
-23.33236624,-0.43259990
-23.32680624,-0.44129770
-23.32124624,-0.44923250
-23.31568624,-0.45683160
-23.31012624,-0.46391190
-23.30456624,-0.46937470
-23.29900624,-0.47483750
-23.29344624,-0.48155160
-23.28788624,-0.48704490
-23.28232624,-0.48814360
-23.27676624,-0.49211100
-23.27120624,-0.49424730
-23.26564624,-0.49647510
-23.26008624,-0.49671930
-23.25452624,-0.50096130
-23.24896624,-0.49809260
-23.24340624,-0.49971010
-23.23784625,-0.49659720
-23.23228625,-0.49610890
-23.22672625,-0.49510180
-23.22116625,-0.49000520
-23.21560625,-0.48838770
-23.21004625,-0.48368780
-23.20448625,-0.47968990
-23.19892625,-0.47349470
-23.19336625,-0.46864220
-23.18780625,-0.46128730
-23.18224625,-0.45384080
-23.17668625,-0.44850000
-23.17112625,-0.43992430
-23.16556625,-0.43171480
-23.16000625,-0.42240670
-23.15444625,-0.41355630
-23.14888625,-0.40150150
-23.14332625,-0.39194920
-23.13776625,-0.38236640
-23.13220625,-0.37168490
-23.12664625,-0.35850090
-23.12108625,-0.34556110
-23.11552625,-0.33014920
-23.10996625,-0.31873530
-23.10440625,-0.30368970
-23.09884625,-0.29099400
-23.09328625,-0.27933590
-23.08772625,-0.26303900
-23.08216625,-0.24811550
-23.07660625,-0.23233740
-23.07104625,-0.21543020
-23.06548625,-0.20151370
-23.05992625,-0.18485060
-23.05436625,-0.16669210
-23.04880625,-0.15140230
-23.04324625,-0.13489180
-23.03768625,-0.12045660
-23.03212625,-0.09994812
-23.02656625,-0.08380383
-23.02100625,-0.06515702
-23.01544625,-0.04934843
-23.00988625,-0.03170873
-23.00432625,-0.01504563
-22.99876625,0.00296030
-22.99320625,0.02011170
-22.98764625,0.03939940
-22.98208625,0.05603198
-22.97652625,0.07318339
-22.97096625,0.09170812
-22.96540625,0.10873740
-22.95984625,0.12414930
-22.95428625,0.14331490
-22.94872625,0.15808590
-22.94316625,0.17450480
-22.93760625,0.19153420
-22.93204625,0.20844140
-22.92648625,0.22373120
-22.92092625,0.23877680
-22.91536625,0.25394450
-22.90980625,0.26972260
-22.90424625,0.28476820
-22.89868625,0.29544970
-22.89312625,0.30973230
-22.88756625,0.32688380
-22.88200625,0.33735160
-22.87644625,0.35062720
-22.87088625,0.36393320
-22.86532625,0.37501140
-22.85976625,0.38456370
-22.85420625,0.39701530
-22.84864625,0.40919220
-22.84308625,0.41700490
-22.83752625,0.42893760
-22.83196626,0.43726920
-22.82640626,0.44450210
-22.82084626,0.45307780
-22.81528626,0.46003600
-22.80972626,0.46562090
-22.80416626,0.47294530
-22.79860626,0.47917110
-22.79304626,0.48176520
-22.78748626,0.48960840
-22.78192626,0.49183630
-22.77636626,0.49296550
-22.77080626,0.49894710
-22.76524626,0.49855040
-22.75968626,0.50053410
-22.75412626,0.50129710
-22.74856626,0.50328080
-22.74300626,0.50364700
-22.73744626,0.49879450
-22.73188626,0.50004580
-22.72632626,0.49681080
-22.72076626,0.49458300
-22.71520626,0.49208050
-22.70964626,0.48725850
-22.70408626,0.47904910
-22.69852626,0.47569200
-22.69296626,0.47108370
-22.68740626,0.46662800
-22.68184626,0.45878480
-22.67628626,0.45020910
-22.67072626,0.44236580
-22.66516626,0.43180640
-22.65960626,0.42323070
-22.65404626,0.41477710
-22.64848626,0.40470590
-22.64292626,0.39551990
-22.63736626,0.38172550
-22.63180626,0.37263100
-22.62624626,0.36008790
-22.62068626,0.34839930
-22.61512626,0.33286540
-22.60956626,0.32242800
-22.60400626,0.30762660
-22.59844626,0.29444260
-22.59288626,0.27854240
-22.58732626,0.26450390
-22.58176626,0.24921410
-22.57620626,0.23291730
-22.57064626,0.21762750
-22.56508626,0.20084230
-22.55952626,0.18396560
-22.55396626,0.17029330
-22.54840626,0.15363020
-22.54284626,0.13647880
-22.53728626,0.11944940
-22.53172626,0.10055850
-22.52616626,0.08487198
-22.52060626,0.06848353
-22.51504626,0.05069124
-22.50948626,0.03366192
-22.50392626,0.01541185
-22.49836626,-0.00311289
-22.49280626,-0.01904355
-22.48724626,-0.03357036
-22.48168626,-0.05359050
-22.47612626,-0.07235938
-22.47056626,-0.09088412
-22.46500626,-0.10342720
-22.45944626,-0.12256230
-22.45388626,-0.13773000
-22.44832626,-0.15799430
-22.44276626,-0.17477950
-22.43720626,-0.18808560
-22.43164626,-0.20548110
-22.42608627,-0.22028260
-22.42052627,-0.23706780
-22.41496627,-0.25098420
-22.40940627,-0.26740320
-22.40384627,-0.28229620
-22.39828627,-0.29596850
-22.39272627,-0.30802330
-22.38716627,-0.32209240
-22.38160627,-0.33726000
-22.37604627,-0.34879600
-22.37048627,-0.36286510
-22.36492627,-0.37354650
-22.35936627,-0.38361770
-22.35380627,-0.39417710
-22.34824627,-0.40348520
-22.34268627,-0.41282390
-22.33712627,-0.42536700
-22.33156627,-0.43507190
-22.32600627,-0.44587540
-22.32044627,-0.45161290
-22.31488627,-0.45695360
-22.30932627,-0.46427810
-22.30376627,-0.46900840
-22.29820627,-0.47633290
-22.29264627,-0.48069700
-22.28708627,-0.48466440
-22.28152627,-0.48814360
-22.27596627,-0.49137850
-22.27040627,-0.49534590
-22.26484627,-0.49720760
-22.25928627,-0.49897760
-22.25372627,-0.50083920
-22.24816627,-0.49760430
-22.24260627,-0.49845880
-22.23704627,-0.49897760
-22.23148627,-0.49671930
-22.22592627,-0.49226360
-22.22036627,-0.48988310
-22.21480627,-0.48789940
-22.20924627,-0.48405410
-22.20368627,-0.48094120
-22.19812627,-0.47422710
-22.19256627,-0.46464430
-22.18700627,-0.46006650
-22.18144627,-0.45420700
-22.17588627,-0.44761500
-22.17032627,-0.43693350
-22.16476627,-0.42973110
-22.15920627,-0.42152170
-22.15364627,-0.41032140
-22.14808627,-0.40214240
-22.14252627,-0.38981290
-22.13696627,-0.37913140
-22.13140627,-0.36695460
-22.12584627,-0.35737170
-22.12028627,-0.34482860
-22.11472627,-0.32853170
-22.10916627,-0.31598870
-22.10360627,-0.30320140
-22.09804627,-0.28901030
-22.09248627,-0.27497180
-22.08692627,-0.25782040
-22.08136627,-0.24463640
-22.07580627,-0.22824790
-22.07024627,-0.21405680
-22.06468627,-0.19714960
-22.05912627,-0.18100530
-22.05356627,-0.16522720
-22.04800627,-0.14767910
-22.04244627,-0.13437300
-22.03688627,-0.11560410
-22.03132627,-0.09710990
-22.02576627,-0.08243050
-22.02020628,-0.06427198
-22.01464628,-0.04626606
-22.00908628,-0.03021332
-22.00352628,-0.01132237
-21.99796628,0.00607318
-21.99240628,0.02398755
-21.98684628,0.04187139
-21.98128628,0.05841243
-21.97572628,0.07568590
-21.97016628,0.09210486
-21.96460628,0.10913420
-21.95904628,0.12726220
-21.95348628,0.14331490
-21.94792628,0.16095460
-21.94236628,0.17697680
-21.93680628,0.19351790
-21.93124628,0.21079130
-21.92568628,0.22421950
-21.92012628,0.24161500
-21.91456628,0.25443280
-21.90900628,0.27320170
-21.90344628,0.28662990
-21.89788628,0.29917290
-21.89232628,0.31360820
-21.88676628,0.32615130
-21.88120628,0.34168520
-21.87564628,0.35349590
-21.87008628,0.36591690
-21.86452628,0.37638480
-21.85896628,0.38892790
-21.85340628,0.39912110
-21.84784628,0.40830710
-21.84228628,0.41837820
-21.83672628,0.42585530
-21.83116628,0.43925290
-21.82560628,0.44660790
-21.82004628,0.45344400
-21.81448628,0.46113470
-21.80892628,0.46723840
-21.80336628,0.47468490
-21.79780628,0.48127690
-21.79224628,0.48390150
-21.78668628,0.48912020
-21.78112628,0.48887600
-21.77556628,0.49494920
-21.77000628,0.49818410
-21.76444628,0.50105290
-21.75888628,0.50093080
-21.75332628,0.50202950
-21.74776628,0.50105290
-21.74220628,0.50254830
-21.73664628,0.49967960
-21.73108628,0.49906920
-21.72552628,0.49668880
-21.71996628,0.49421670
-21.71440628,0.48973050
-21.70884628,0.48426770
-21.70328628,0.48127690
-21.69772628,0.47779780
-21.69216628,0.47071750
-21.68660628,0.46339300
-21.68104628,0.45481740
-21.67548628,0.44734030
-21.66992628,0.44074830
-21.66436628,0.43269140
-21.65880628,0.42185740
-21.65324628,0.41380050
-21.64768628,0.40409560
-21.64212628,0.39216290
-21.63656628,0.38132880
-21.63100628,0.36991490
-21.62544628,0.35761590
-21.61988628,0.34467600
-21.61432629,0.33448280
-21.60876629,0.32032230
-21.60320629,0.30613120
-21.59764629,0.29096350
-21.59208629,0.27457500
-21.58652629,0.26139100
-21.58096629,0.24970240
-21.57540629,0.23206270
-21.56984629,0.21665090
-21.56428629,0.19986570
-21.55872629,0.18420970
-21.55316629,0.16815700
-21.54760629,0.15015110
-21.54204629,0.13287760
-21.53648629,0.11719110
-21.53092629,0.09930723
-21.52536629,0.08151494
-21.51980629,0.06573687
-21.51424629,0.04870754
-21.50868629,0.03228858
-21.50312629,0.01266518
-21.49756629,-0.00549333
-21.49200629,-0.02127140
-21.48644629,-0.03930784
-21.48088629,-0.05606250
-21.47532629,-0.07361065
-21.46976629,-0.09100620
-21.46420629,-0.10928680
-21.45864629,-0.12579730
-21.45308629,-0.14133120
-21.44752629,-0.15750600
-21.44196629,-0.17554250
-21.43640629,-0.19119850
-21.43084629,-0.20734280
-21.42528629,-0.22064880
-21.41972629,-0.23856320
-21.41416629,-0.25397500
-21.40860629,-0.26938690
-21.40304629,-0.28354750
-21.39748629,-0.29660940
-21.39192629,-0.31052580
-21.38636629,-0.32517470
-21.38080629,-0.33997620
-21.37524629,-0.34931490
-21.36968629,-0.36149170
-21.36412629,-0.37342450
-21.35856629,-0.38807340
-21.35300629,-0.39490950
-21.34744629,-0.40797140
-21.34188629,-0.41804250
-21.33632629,-0.42524490
-21.33076629,-0.43580430
-21.32520629,-0.44453260
-21.31964629,-0.44987340
-21.31408629,-0.45844900
-21.30852629,-0.46378980
-21.30296629,-0.47224340
-21.29740629,-0.47746210
-21.29184629,-0.48316900
-21.28628629,-0.48554950
-21.28072629,-0.49000520
-21.27516629,-0.49400310
-21.26960629,-0.49436930
-21.26404629,-0.49546800
-21.25848629,-0.49983220
-21.25292629,-0.49971010
-21.24736629,-0.49809260
-21.24180629,-0.49922180
-21.23624629,-0.49934380
-21.23068629,-0.49623100
-21.22512629,-0.49360640
-21.21956629,-0.48988310
-21.21400629,-0.48728900
-21.20844630,-0.48243660
-21.20288630,-0.47633290
-21.19732630,-0.47349470
-21.19176630,-0.46626180
-21.18620630,-0.46192820
-21.18064630,-0.45335250
-21.17508630,-0.44688250
-21.16952630,-0.43794060
-21.16396630,-0.42774740
-21.15840630,-0.41953800
-21.15284630,-0.40873440
-21.14728630,-0.39890740
-21.14172630,-0.38981290
-21.13616630,-0.37839900
-21.13060630,-0.36658830
-21.12504630,-0.35465560
-21.11948630,-0.34034240
-21.11392630,-0.33002720
-21.10836630,-0.31525620
-21.10280630,-0.30170600
-21.09724630,-0.28641620
-21.09168630,-0.27286600
-21.08612630,-0.25955990
-21.08056630,-0.24176760
-21.07500630,-0.22711870
-21.06944630,-0.21170690
-21.06388630,-0.19641710
-21.05832630,-0.18185980
-21.05276630,-0.16248050
-21.04720630,-0.14557330
-21.04164630,-0.12866600
-21.03608630,-0.11349830
-21.03052630,-0.09585864
-21.02496630,-0.07657094
-21.01940630,-0.06216620
-21.01384630,-0.04477065
-21.00828630,-0.02475051
-21.00272630,-0.00833155
-20.99716630,0.00506607
-20.99160630,0.02819910
-20.98604630,0.04263436
-20.98048630,0.06088443
-20.97492630,0.07580797
-20.96936630,0.09482101
-20.96380630,0.11358990
-20.95824630,0.12726220
-20.95268630,0.14627520
-20.94712630,0.16156500
-20.94156630,0.17822810
-20.93600630,0.19724110
-20.93044630,0.21192050
-20.92488630,0.22547080
-20.91932630,0.24387340
-20.91376630,0.25891900
-20.90820630,0.27518540
-20.90264630,0.29023100
-20.89708630,0.30018000
-20.89152630,0.31644640
-20.88596630,0.32825710
-20.88040630,0.34156320
-20.87484630,0.35584580
-20.86928630,0.36741230
-20.86372630,0.38059630
-20.85816630,0.38767660
-20.85260630,0.40134890
-20.84704630,0.40955840
-20.84148630,0.41938530
-20.83592630,0.43043310
-20.83036630,0.43888670
-20.82480630,0.44785910
-20.81924630,0.45393230
-20.81368630,0.46137880
-20.80812630,0.47096160
-20.80256630,0.47383040
-20.79700631,0.47804190
-20.79144631,0.48390150
-20.78588631,0.48948640
-20.78032631,0.49195840
-20.77476631,0.49421670
-20.76920631,0.49583420
-20.76364631,0.50242620
-20.75808631,0.50016780
-20.75252631,0.50215150
-20.74696631,0.50016780
-20.74140631,0.50117500
-20.73584631,0.50190740
-20.73028631,0.49855040
-20.72472631,0.49830620
-20.71916631,0.49320960
-20.71360631,0.48847930
-20.70804631,0.48500020
-20.70248631,0.48042240
-20.69692631,0.47468490
-20.69136631,0.46848960
-20.68580631,0.46598710
-20.68024631,0.45481740
-20.67468631,0.44822530
-20.66912631,0.44087040
-20.66356631,0.43156220
-20.65800631,0.42048400
-20.65244631,0.41016880
