PE IR       SUBTECH     SPECTRUM    ASCII       PEDS        4.00        
   -1
Al2O3.ASC
25/06/17
10:21:29.00
25/06/17
10:21:29.00
Praktikum
res 4
300,000000
#HDR
-1
-1
#GR
cm-1
EGY
1.0
0.0
4000,000000
-1,000000
3701
8
49,797537
0,001269
#DATA
4000,000000	33,385272
3999,000000	33,390217
3998,000000	33,358736
3997,000000	33,317483
3996,000000	33,310054
3995,000000	33,348957
3994,000000	33,398984
3993,000000	33,416993
3992,000000	33,401625
3991,000000	33,394745
3990,000000	33,431082
3989,000000	33,496460
3988,000000	33,544745
3987,000000	33,550189
3986,000000	33,532689
3985,000000	33,531233
3984,000000	33,561293
3983,000000	33,602758
3982,000000	33,626756
3981,000000	33,625323
3980,000000	33,612682
3979,000000	33,602302
3978,000000	33,589763
3977,000000	33,563497
3976,000000	33,529499
3975,000000	33,516485
3974,000000	33,548841
3973,000000	33,616906
3972,000000	33,680735
3971,000000	33,708438
3970,000000	33,709266
3969,000000	33,722838
3968,000000	33,772242
3967,000000	33,831447
3966,000000	33,845421
3965,000000	33,787575
3964,000000	33,696953
3963,000000	33,648093
3962,000000	33,679454
3961,000000	33,756666
3960,000000	33,813250
3959,000000	33,821672
3958,000000	33,814968
3957,000000	33,837309
3956,000000	33,885157
3955,000000	33,905952
3954,000000	33,847914
3953,000000	33,703667
3952,000000	33,512513
3951,000000	33,336906
3950,000000	33,237109
3949,000000	33,247359
3948,000000	33,345626
3947,000000	33,443209
3946,000000	33,440204
3945,000000	33,321892
3944,000000	33,200555
3943,000000	33,230038
3942,000000	33,459369
3941,000000	33,787908
3940,000000	34,067231
3939,000000	34,217716
3938,000000	34,232173
3937,000000	34,105480
3936,000000	33,822608
3935,000000	33,427954
3934,000000	33,057035
3933,000000	32,867890
3932,000000	32,937808
3931,000000	33,220440
3930,000000	33,569160
3929,000000	33,796015
3928,000000	33,775015
3927,000000	33,546714
3926,000000	33,308092
3925,000000	33,251756
3924,000000	33,384573
3923,000000	33,523928
3922,000000	33,472805
3921,000000	33,188755
3920,000000	32,808361
3919,000000	32,548227
3918,000000	32,584890
3917,000000	32,956731
3916,000000	33,534325
3915,000000	34,099585
3914,000000	34,491568
3913,000000	34,697447
3912,000000	34,794078
3911,000000	34,812940
3910,000000	34,675203
3909,000000	34,244535
3908,000000	33,436188
3907,000000	32,313161
3906,000000	31,114337
3905,000000	30,159487
3904,000000	29,657183
3903,000000	29,590318
3902,000000	29,815502
3901,000000	30,262863
3900,000000	30,986364
3899,000000	31,990359
3898,000000	33,075658
3897,000000	33,897144
3896,000000	34,158185
3895,000000	33,767484
3894,000000	32,923341
3893,000000	32,110723
3892,000000	31,864176
3891,000000	32,308561
3890,000000	32,913815
3889,000000	32,934019
3888,000000	32,178054
3887,000000	31,273708
3886,000000	31,011543
3885,000000	31,503755
3884,000000	32,124594
3883,000000	32,264228
3882,000000	31,999766
3881,000000	31,946697
3880,000000	32,510956
3879,000000	33,409029
3878,000000	33,950654
3877,000000	33,752702
3876,000000	33,087593
3875,000000	32,461242
3874,000000	31,983798
3873,000000	31,348106
3872,000000	30,458384
3871,000000	29,805251
3870,000000	29,960962
3869,000000	30,815837
3868,000000	31,608458
3867,000000	31,748747
3866,000000	31,408600
3865,000000	31,215884
3864,000000	31,547158
3863,000000	32,289169
3862,000000	33,117990
3861,000000	33,783553
3860,000000	34,077637
3859,000000	33,695828
3858,000000	32,299948
3857,000000	29,831666
3856,000000	26,858489
3855,000000	24,545534
3854,000000	24,033033
3853,000000	25,617904
3852,000000	28,514262
3851,000000	31,458919
3850,000000	33,578697
3849,000000	34,693199
3848,000000	35,008141
3847,000000	34,753962
3846,000000	34,143815
3845,000000	33,425108
3844,000000	32,781880
3843,000000	32,191527
3842,000000	31,471729
3841,000000	30,518946
3840,000000	29,516017
3839,000000	28,884480
3838,000000	28,991264
3837,000000	29,825396
3836,000000	30,962619
3835,000000	31,893451
3834,000000	32,421293
3833,000000	32,745630
3832,000000	33,161265
3831,000000	33,720575
3830,000000	34,195714
3829,000000	34,369331
3828,000000	34,294418
3827,000000	34,180737
3826,000000	34,006234
3825,000000	33,392058
3824,000000	32,080706
3823,000000	30,514830
3822,000000	29,644557
3821,000000	29,965352
3820,000000	30,881609
3819,000000	31,334139
3818,000000	30,998727
3817,000000	30,636348
3816,000000	31,178599
3815,000000	32,704284
3814,000000	34,470089
3813,000000	35,689150
3812,000000	36,040414
3811,000000	35,537365
3810,000000	34,355017
3809,000000	32,953160
3808,000000	32,055530
3807,000000	32,088628
3806,000000	32,607965
3805,000000	32,616629
3804,000000	31,647539
3803,000000	30,392247
3802,000000	30,018569
3801,000000	30,917262
3800,000000	32,362910
3799,000000	33,397222
3798,000000	33,814644
3797,000000	34,105959
3796,000000	34,690678
3795,000000	35,473728
3794,000000	36,114963
3793,000000	36,460477
3792,000000	36,601724
3791,000000	36,664095
3790,000000	36,665875
3789,000000	36,554397
3788,000000	36,311826
3787,000000	36,029892
3786,000000	35,867394
3785,000000	35,891590
3784,000000	35,948265
3783,000000	35,776585
3782,000000	35,310067
3781,000000	34,822640
3780,000000	34,710042
3779,000000	35,113606
3778,000000	35,802742
3777,000000	36,417277
3776,000000	36,755491
3775,000000	36,782251
3774,000000	36,448192
3773,000000	35,692223
3772,000000	34,695799
3771,000000	33,948236
3770,000000	33,836326
3769,000000	34,214472
3768,000000	34,588902
3767,000000	34,741270
3766,000000	34,922710
3765,000000	35,352812
3764,000000	35,767700
3763,000000	35,703763
3762,000000	35,082032
3761,000000	34,312706
3760,000000	33,876351
3759,000000	33,951855
3758,000000	34,348832
3757,000000	34,588103
3756,000000	34,109784
3755,000000	32,670574
3754,000000	30,609529
3753,000000	28,646727
3752,000000	27,435857
3751,000000	27,306688
3750,000000	28,152566
3749,000000	29,285663
3748,000000	29,644556
3747,000000	28,690236
3746,000000	27,205868
3745,000000	26,779861
3744,000000	28,235261
3743,000000	30,814056
3742,000000	33,006384
3741,000000	33,857143
3740,000000	33,347915
3739,000000	31,944880
3738,000000	30,261782
3737,000000	28,971573
3736,000000	28,517577
3735,000000	28,817014
3734,000000	29,502236
3733,000000	30,434565
3732,000000	31,690977
3731,000000	33,072879
3730,000000	34,000831
3729,000000	34,097766
3728,000000	33,637037
3727,000000	33,224186
3726,000000	33,171113
3725,000000	33,349995
3724,000000	33,555971
3723,000000	33,790585
3722,000000	34,169180
3721,000000	34,718151
3720,000000	35,344788
3719,000000	35,928990
3718,000000	36,335904
3717,000000	36,344940
3716,000000	35,694435
3715,000000	34,335413
3714,000000	32,650908
3713,000000	31,322941
3712,000000	30,896163
3711,000000	31,443319
3710,000000	32,637745
3709,000000	34,040030
3708,000000	35,271032
3707,000000	36,041871
3706,000000	36,185743
3705,000000	35,761961
3704,000000	35,084025
3703,000000	34,593127
3702,000000	34,620495
3701,000000	35,165958
3700,000000	35,904059
3699,000000	36,464594
3698,000000	36,728375
3697,000000	36,792258
3696,000000	36,678588
3695,000000	36,226703
3694,000000	35,311521
3693,000000	34,021123
3692,000000	32,579704
3691,000000	31,282198
3690,000000	30,577672
3689,000000	30,963829
3688,000000	32,516503
3687,000000	34,609422
3686,000000	36,349961
3685,000000	37,272506
3684,000000	37,495028
3683,000000	37,324398
3682,000000	36,939502
3681,000000	36,356395
3680,000000	35,412444
3679,000000	33,833291
3678,000000	31,702823
3677,000000	29,865468
3676,000000	29,419791
3675,000000	30,510522
3674,000000	31,951146
3673,000000	32,408716
3672,000000	31,810620
3671,000000	31,312148
3670,000000	31,954482
3669,000000	33,677730
3668,000000	35,644311
3667,000000	37,143219
3666,000000	38,003435
3665,000000	38,385159
3664,000000	38,483090
3663,000000	38,444588
3662,000000	38,345022
3661,000000	38,111039
3660,000000	37,541400
3659,000000	36,554916
3658,000000	35,475050
3657,000000	34,909681
3656,000000	35,152873
3655,000000	35,703710
3654,000000	35,557873
3653,000000	34,149299
3652,000000	31,932173
3651,000000	30,004138
3650,000000	29,249233
3649,000000	29,867301
3648,000000	31,525622
3647,000000	33,652881
3646,000000	35,618861
3645,000000	36,959374
3644,000000	37,614356
3643,000000	37,863877
3642,000000	37,976458
3641,000000	38,005470
3640,000000	37,937986
3639,000000	37,844725
3638,000000	37,756127
3637,000000	37,555472
3636,000000	37,163283
3635,000000	36,687428
3634,000000	36,158518
3633,000000	35,236509
3632,000000	33,544905
3631,000000	31,410931
3630,000000	29,955347
3629,000000	30,180519
3628,000000	32,008851
3627,000000	34,386050
3626,000000	36,222080
3625,000000	37,076212
3624,000000	37,030356
3623,000000	36,299614
3622,000000	35,161062
3621,000000	34,073224
3620,000000	33,554702
3619,000000	33,826331
3618,000000	34,609303
3617,000000	35,340547
3616,000000	35,618906
3615,000000	35,466095
3614,000000	35,182881
3613,000000	34,985257
3612,000000	34,827563
3611,000000	34,597638
3610,000000	34,405034
3609,000000	34,548823
3608,000000	35,183266
3607,000000	36,115817
3606,000000	36,967170
3605,000000	37,463954
3604,000000	37,548788
3603,000000	37,326077
3602,000000	37,001286
3601,000000	36,798281
3600,000000	36,799711
3599,000000	36,863560
3598,000000	36,777277
3597,000000	36,510812
3596,000000	36,277865
3595,000000	36,327758
3594,000000	36,684827
3593,000000	37,061145
3592,000000	37,023206
3591,000000	36,327616
3590,000000	35,208882
3589,000000	34,304721
3588,000000	34,190073
3587,000000	34,930242
3586,000000	36,095988
3585,000000	37,173038
3584,000000	37,901258
3583,000000	38,287685
3582,000000	38,439533
3581,000000	38,461461
3580,000000	38,441700
3579,000000	38,445231
3578,000000	38,496021
3577,000000	38,576746
3576,000000	38,649667
3575,000000	38,686432
3574,000000	38,682099
3573,000000	38,603806
3572,000000	38,308109
3571,000000	37,592432
3570,000000	36,448815
3569,000000	35,266739
3568,000000	34,644982
3567,000000	34,917555
3566,000000	35,870950
3565,000000	36,953882
3564,000000	37,724484
3563,000000	38,105323
3562,000000	38,281654
3561,000000	38,452079
3560,000000	38,671275
3559,000000	38,869687
3558,000000	38,966431
3557,000000	38,942045
3556,000000	38,818423
3555,000000	38,620108
3554,000000	38,399396
3553,000000	38,264145
3552,000000	38,296215
3551,000000	38,424274
3550,000000	38,443702
3549,000000	38,214335
3548,000000	37,820882
3547,000000	37,514978
3546,000000	37,510365
3545,000000	37,834133
3544,000000	38,332323
3543,000000	38,787177
3542,000000	39,056651
3541,000000	39,138312
3540,000000	39,115646
3539,000000	39,055185
3538,000000	38,979237
3537,000000	38,916381
3536,000000	38,917971
3535,000000	38,998312
3534,000000	39,092550
3533,000000	39,101606
3532,000000	38,968861
3531,000000	38,717749
3530,000000	38,444764
3529,000000	38,271529
3528,000000	38,251026
3527,000000	38,304547
3526,000000	38,304599
3525,000000	38,241253
3524,000000	38,254141
3523,000000	38,455853
3522,000000	38,773098
3521,000000	39,019739
3520,000000	39,105405
3519,000000	39,105650
3518,000000	39,136474
3517,000000	39,217883
3516,000000	39,277878
3515,000000	39,245853
3514,000000	39,117495
3513,000000	38,947644
3512,000000	38,806792
3511,000000	38,740340
3510,000000	38,753336
3509,000000	38,816617
3508,000000	38,875588
3507,000000	38,863860
3506,000000	38,741870
3505,000000	38,545545
3504,000000	38,387307
3503,000000	38,382431
3502,000000	38,559918
3501,000000	38,833595
3500,000000	39,057967
3499,000000	39,125999
3498,000000	39,048342
3497,000000	38,947104
3496,000000	38,947928
3495,000000	39,062844
3494,000000	39,186788
3493,000000	39,216402
3492,000000	39,149220
3491,000000	39,061491
3490,000000	39,016207
3489,000000	39,016739
3488,000000	39,028709
3487,000000	39,018833
3486,000000	38,976333
3485,000000	38,915173
3484,000000	38,858921
3483,000000	38,821000
3482,000000	38,809299
3481,000000	38,846955
3480,000000	38,958137
3479,000000	39,115918
3478,000000	39,233051
3477,000000	39,238312
3476,000000	39,157672
3475,000000	39,093654
3474,000000	39,121188
3473,000000	39,217545
3472,000000	39,292065
3471,000000	39,277074
3470,000000	39,191882
3469,000000	39,124593
3468,000000	39,142908
3467,000000	39,218047
3466,000000	39,254047
3465,000000	39,200849
3464,000000	39,118856
3463,000000	39,109697
3462,000000	39,197671
3461,000000	39,307260
3460,000000	39,355657
3459,000000	39,342697
3458,000000	39,336712
3457,000000	39,386345
3456,000000	39,462244
3455,000000	39,493864
3454,000000	39,459898
3453,000000	39,417579
3452,000000	39,421247
3451,000000	39,427202
3450,000000	39,330995
3449,000000	39,116477
3448,000000	38,921034
3447,000000	38,904429
3446,000000	39,069165
3445,000000	39,261457
3444,000000	39,346185
3443,000000	39,338558
3442,000000	39,349949
3441,000000	39,442988
3440,000000	39,571453
3439,000000	39,645280
3438,000000	39,628948
3437,000000	39,574052
3436,000000	39,564152
3435,000000	39,629199
3434,000000	39,714391
3433,000000	39,742976
3432,000000	39,708271
3431,000000	39,684414
3430,000000	39,738535
3429,000000	39,848446
3428,000000	39,927017
3427,000000	39,921327
3426,000000	39,864419
3425,000000	39,824943
3424,000000	39,823934
3423,000000	39,821634
3422,000000	39,785571
3421,000000	39,750418
3420,000000	39,790624
3419,000000	39,931301
3418,000000	40,101781
3417,000000	40,195340
3416,000000	40,175579
3415,000000	40,112937
3414,000000	40,108778
3413,000000	40,188549
3412,000000	40,280954
3411,000000	40,302855
3410,000000	40,252995
3409,000000	40,210150
3408,000000	40,239302
3407,000000	40,314406
3406,000000	40,349191
3405,000000	40,300724
3404,000000	40,224439
3403,000000	40,212712
3402,000000	40,285720
3401,000000	40,365400
3400,000000	40,366652
3399,000000	40,300289
3398,000000	40,261970
3397,000000	40,315214
3396,000000	40,409670
3395,000000	40,440611
3394,000000	40,382069
3393,000000	40,328288
3392,000000	40,386620
3391,000000	40,548078
3390,000000	40,691409
3389,000000	40,714337
3388,000000	40,637174
3387,000000	40,570209
3386,000000	40,593886
3385,000000	40,685274
3384,000000	40,758916
3383,000000	40,766260
3382,000000	40,744686
3381,000000	40,766300
3380,000000	40,845525
3379,000000	40,915471
3378,000000	40,908682
3377,000000	40,846416
3376,000000	40,820894
3375,000000	40,885163
3374,000000	40,985127
3373,000000	41,020067
3372,000000	40,959057
3371,000000	40,872750
3370,000000	40,847559
3369,000000	40,889455
3368,000000	40,927630
3367,000000	40,907193
3366,000000	40,858786
3365,000000	40,862573
3364,000000	40,949321
3363,000000	41,057331
3362,000000	41,099222
3361,000000	41,061563
3360,000000	41,017832
3359,000000	41,040353
3358,000000	41,117871
3357,000000	41,174952
3356,000000	41,165493
3355,000000	41,126452
3354,000000	41,132617
3353,000000	41,208269
3352,000000	41,295968
3351,000000	41,319026
3350,000000	41,269848
3349,000000	41,223256
3348,000000	41,253462
3347,000000	41,346275
3346,000000	41,412522
3345,000000	41,392717
3344,000000	41,328906
3343,000000	41,314151
3342,000000	41,378513
3341,000000	41,449554
3340,000000	41,436880
3339,000000	41,341845
3338,000000	41,263216
3337,000000	41,290379
3336,000000	41,405621
3335,000000	41,506391
3334,000000	41,521034
3333,000000	41,483789
3332,000000	41,483141
3331,000000	41,548829
3330,000000	41,614117
3329,000000	41,599408
3328,000000	41,516075
3327,000000	41,461796
3326,000000	41,510193
3325,000000	41,625466
3324,000000	41,702969
3323,000000	41,687629
3322,000000	41,631444
3321,000000	41,626884
3320,000000	41,697290
3319,000000	41,772042
3318,000000	41,773504
3317,000000	41,709729
3316,000000	41,664678
3315,000000	41,699869
3314,000000	41,780927
3313,000000	41,813985
3312,000000	41,753876
3311,000000	41,661297
3310,000000	41,639501
3309,000000	41,718367
3308,000000	41,821059
3307,000000	41,854944
3306,000000	41,820782
3305,000000	41,807763
3304,000000	41,877973
3303,000000	41,984519
3302,000000	42,025800
3301,000000	41,968061
3300,000000	41,887436
3299,000000	41,883174
3298,000000	41,964782
3297,000000	42,043381
3296,000000	42,034983
3295,000000	41,956105
3294,000000	41,903734
3293,000000	41,943792
3292,000000	42,035447
3291,000000	42,081931
3290,000000	42,050703
3289,000000	42,013153
3288,000000	42,053929
3287,000000	42,161507
3286,000000	42,236162
3285,000000	42,209808
3284,000000	42,129171
3283,000000	42,100399
3282,000000	42,165046
3281,000000	42,252958
3280,000000	42,264191
3279,000000	42,184391
3278,000000	42,100101
3277,000000	42,099603
3276,000000	42,175032
3275,000000	42,236674
3274,000000	42,222970
3273,000000	42,176063
3272,000000	42,190232
3271,000000	42,294818
3270,000000	42,412630
3269,000000	42,445528
3268,000000	42,388883
3267,000000	42,337210
3266,000000	42,373048
3265,000000	42,471296
3264,000000	42,529327
3263,000000	42,489313
3262,000000	42,408464
3261,000000	42,391592
3260,000000	42,467869
3259,000000	42,555145
3258,000000	42,555624
3257,000000	42,473259
3256,000000	42,410999
3255,000000	42,453660
3254,000000	42,570712
3253,000000	42,651576
3252,000000	42,635762
3251,000000	42,579509
3250,000000	42,581611
3249,000000	42,657309
3248,000000	42,715304
3247,000000	42,674630
3246,000000	42,573595
3245,000000	42,533830
3244,000000	42,618165
3243,000000	42,753597
3242,000000	42,816378
3241,000000	42,771181
3240,000000	42,703771
3239,000000	42,715927
3238,000000	42,808502
3237,000000	42,886523
3236,000000	42,870202
3235,000000	42,787419
3234,000000	42,743198
3233,000000	42,799055
3232,000000	42,901285
3231,000000	42,941965
3230,000000	42,889029
3229,000000	42,827748
3228,000000	42,859124
3227,000000	42,976320
3226,000000	43,068803
3225,000000	43,052846
3224,000000	42,966116
3223,000000	42,918177
3222,000000	42,961595
3221,000000	43,039749
3220,000000	43,064579
3219,000000	43,021427
3218,000000	42,980588
3217,000000	43,008126
3216,000000	43,087315
3215,000000	43,137857
3214,000000	43,110571
3213,000000	43,047962
3212,000000	43,039411
3211,000000	43,120220
3210,000000	43,226485
3209,000000	43,266566
3208,000000	43,227396
3207,000000	43,191653
3206,000000	43,238106
3205,000000	43,342267
3204,000000	43,402033
3203,000000	43,359800
3202,000000	43,273666
3201,000000	43,247271
3200,000000	43,307776
3199,000000	43,378215
3198,000000	43,377702
3197,000000	43,321933
3196,000000	43,305504
3195,000000	43,386302
3194,000000	43,511403
3193,000000	43,572136
3192,000000	43,528232
3191,000000	43,457188
3190,000000	43,464439
3189,000000	43,557837
3188,000000	43,634601
3187,000000	43,605545
3186,000000	43,506686
3185,000000	43,463526
3184,000000	43,543337
3183,000000	43,673895
3182,000000	43,721697
3181,000000	43,643911
3180,000000	43,535746
3179,000000	43,524678
3178,000000	43,629082
3177,000000	43,742819
3176,000000	43,761203
3175,000000	43,702031
3174,000000	43,677752
3173,000000	43,753577
3172,000000	43,864603
3171,000000	43,896402
3170,000000	43,827421
3169,000000	43,756734
3168,000000	43,784221
3167,000000	43,891892
3166,000000	43,968310
3165,000000	43,942187
3164,000000	43,864969
3163,000000	43,849290
3162,000000	43,936122
3161,000000	44,045022
3160,000000	44,066044
3159,000000	43,990361
3158,000000	43,923801
3157,000000	43,962340
3156,000000	44,075492
3155,000000	44,142403
3154,000000	44,097949
3153,000000	44,012343
3152,000000	44,005393
3151,000000	44,104011
3150,000000	44,210739
3149,000000	44,220369
3148,000000	44,142308
3147,000000	44,088525
3146,000000	44,141093
3145,000000	44,256169
3144,000000	44,314333
3143,000000	44,263011
3142,000000	44,179939
3141,000000	44,181634
3140,000000	44,283920
3139,000000	44,382895
3138,000000	44,377870
3137,000000	44,286407
3136,000000	44,218943
3135,000000	44,249652
3134,000000	44,338339
3133,000000	44,386548
3132,000000	44,356406
3131,000000	44,311277
3130,000000	44,336126
3129,000000	44,429871
3128,000000	44,499529
3127,000000	44,467994
3126,000000	44,370009
3125,000000	44,318541
3124,000000	44,374865
3123,000000	44,477002
3122,000000	44,512023
3121,000000	44,449634
3120,000000	44,376544
3119,000000	44,391982
3118,000000	44,489168
3117,000000	44,564069
3116,000000	44,543770
3115,000000	44,479170
3114,000000	44,485777
3113,000000	44,599365
3112,000000	44,724240
3111,000000	44,743158
3110,000000	44,658970
3109,000000	44,593916
3108,000000	44,644915
3107,000000	44,769808
3106,000000	44,836234
3105,000000	44,773907
3104,000000	44,653956
3103,000000	44,608440
3102,000000	44,685147
3101,000000	44,797848
3100,000000	44,827672
3099,000000	44,759987
3098,000000	44,699358
3097,000000	44,743698
3096,000000	44,866114
3095,000000	44,949028
3094,000000	44,929392
3093,000000	44,875537
3092,000000	44,898986
3091,000000	45,011776
3090,000000	45,106734
3089,000000	45,087072
3088,000000	44,987465
3087,000000	44,937068
3086,000000	45,006720
3085,000000	45,121637
3084,000000	45,147786
3083,000000	45,051984
3082,000000	44,943701
3081,000000	44,947741
3080,000000	45,060183
3079,000000	45,159566
3078,000000	45,155326
3077,000000	45,091467
3076,000000	45,085386
3075,000000	45,181718
3074,000000	45,296174
3073,000000	45,313480
3072,000000	45,221792
3071,000000	45,127242
3070,000000	45,129137
3069,000000	45,202218
3068,000000	45,228511
3067,000000	45,146444
3066,000000	45,036987
3065,000000	45,034526
3064,000000	45,165874
3063,000000	45,312122
3062,000000	45,342401
3061,000000	45,258747
3060,000000	45,183039
3059,000000	45,210726
3058,000000	45,306275
3057,000000	45,357775
3056,000000	45,317696
3055,000000	45,261481
3054,000000	45,294804
3053,000000	45,418263
3052,000000	45,514612
3051,000000	45,483600
3050,000000	45,368331
3049,000000	45,313724
3048,000000	45,399731
3047,000000	45,545469
3046,000000	45,603884
3045,000000	45,533654
3044,000000	45,443182
3043,000000	45,457938
3042,000000	45,572478
3041,000000	45,660325
3040,000000	45,625050
3039,000000	45,512468
3038,000000	45,453488
3037,000000	45,507801
3036,000000	45,591991
3035,000000	45,578371
3034,000000	45,450396
3033,000000	45,332181
3032,000000	45,351215
3031,000000	45,490542
3030,000000	45,604409
3029,000000	45,583198
3028,000000	45,476175
3027,000000	45,425619
3026,000000	45,491849
3025,000000	45,580912
3024,000000	45,565032
3023,000000	45,444596
3022,000000	45,348690
3021,000000	45,374129
3020,000000	45,467047
3019,000000	45,492192
3018,000000	45,402234
3017,000000	45,297183
3016,000000	45,306880
3015,000000	45,439249
3014,000000	45,573614
3013,000000	45,602756
3012,000000	45,558020
3011,000000	45,570254
3010,000000	45,711093
3009,000000	45,897249
3008,000000	45,978880
3007,000000	45,913867
3006,000000	45,821166
3005,000000	45,843168
3004,000000	45,980194
3003,000000	46,094540
3002,000000	46,078602
3001,000000	45,980751
3000,000000	45,942761
2999,000000	46,026930
2998,000000	46,141691
2997,000000	46,151721
2996,000000	46,042664
2995,000000	45,943085
2994,000000	45,974451
2993,000000	46,105347
2992,000000	46,186001
2991,000000	46,125693
2990,000000	46,000302
2989,000000	45,959589
2988,000000	46,047833
2987,000000	46,153867
2986,000000	46,146237
2985,000000	46,029572
2984,000000	45,934360
2983,000000	45,958611
2982,000000	46,050173
2981,000000	46,069697
2980,000000	45,960039
2979,000000	45,816918
2978,000000	45,773981
2977,000000	45,839212
2976,000000	45,882704
2975,000000	45,793847
2974,000000	45,615060
2973,000000	45,488658
2972,000000	45,485192
2971,000000	45,519530
2970,000000	45,454633
2969,000000	45,264869
2968,000000	45,067594
2967,000000	44,989163
2966,000000	45,019226
2965,000000	45,026168
2964,000000	44,914901
2963,000000	44,743282
2962,000000	44,654601
2961,000000	44,703424
2960,000000	44,788748
2959,000000	44,775297
2958,000000	44,656772
2957,000000	44,560322
2956,000000	44,590998
2955,000000	44,706701
2954,000000	44,768754
2953,000000	44,705529
2952,000000	44,593900
2951,000000	44,566300
2950,000000	44,650790
2949,000000	44,733409
2948,000000	44,691304
2947,000000	44,540002
2946,000000	44,416116
2945,000000	44,410509
2944,000000	44,457697
2943,000000	44,415524
2942,000000	44,238681
2941,000000	44,032880
2940,000000	43,928512
2939,000000	43,929997
2938,000000	43,915894
2937,000000	43,787357
2936,000000	43,586533
2935,000000	43,448861
2934,000000	43,441513
2933,000000	43,479741
2932,000000	43,424566
2931,000000	43,250063
2930,000000	43,076538
2929,000000	43,026557
2928,000000	43,080469
2927,000000	43,107940
2926,000000	43,033951
2925,000000	42,933275
2924,000000	42,943630
2923,000000	43,102820
2922,000000	43,305230
2921,000000	43,422726
2920,000000	43,453004
2919,000000	43,519275
2918,000000	43,720486
2917,000000	44,006042
2916,000000	44,230153
2915,000000	44,324480
2914,000000	44,380109
2913,000000	44,532103
2912,000000	44,790128
2911,000000	45,022457
2910,000000	45,112864
2909,000000	45,099474
2908,000000	45,128858
2907,000000	45,283526
2906,000000	45,486634
2905,000000	45,594146
2904,000000	45,568295
2903,000000	45,525919
2902,000000	45,601291
2901,000000	45,782837
2900,000000	45,924372
2899,000000	45,923013
2898,000000	45,845682
2897,000000	45,847716
2896,000000	45,984781
2895,000000	46,146878
2894,000000	46,193877
2893,000000	46,121916
2892,000000	46,066746
2891,000000	46,140859
2890,000000	46,299327
2889,000000	46,390716
2888,000000	46,337934
2887,000000	46,232208
2886,000000	46,226400
2885,000000	46,347795
2884,000000	46,463346
2883,000000	46,440581
2882,000000	46,309657
2881,000000	46,225052
2880,000000	46,276531
2879,000000	46,382840
2878,000000	46,390757
2877,000000	46,258511
2876,000000	46,104088
2875,000000	46,065591
2874,000000	46,136699
2873,000000	46,172854
2872,000000	46,061574
2871,000000	45,859669
2870,000000	45,724918
2869,000000	45,723011
2868,000000	45,746377
2867,000000	45,646605
2866,000000	45,419181
2865,000000	45,209942
2864,000000	45,144112
2863,000000	45,183706
2862,000000	45,183006
2861,000000	45,068250
2860,000000	44,926068
2859,000000	44,902025
2858,000000	45,024481
2857,000000	45,165318
2856,000000	45,188102
2855,000000	45,110504
2854,000000	45,083196
2853,000000	45,205304
2852,000000	45,404256
2851,000000	45,528730
2850,000000	45,538998
2849,000000	45,557345
2848,000000	45,719718
2847,000000	46,009297
2846,000000	46,269322
2845,000000	46,380107
2844,000000	46,392310
2843,000000	46,463569
2842,000000	46,667901
2841,000000	46,902377
2840,000000	47,009832
2839,000000	46,972396
2838,000000	46,938808
2837,000000	47,044233
2836,000000	47,244731
2835,000000	47,373650
2834,000000	47,346096
2833,000000	47,260995
2832,000000	47,279590
2831,000000	47,432798
2830,000000	47,587176
2829,000000	47,604306
2828,000000	47,506562
2827,000000	47,452904
2826,000000	47,549616
2825,000000	47,719238
2824,000000	47,790946
2823,000000	47,709435
2822,000000	47,604833
2821,000000	47,634553
2820,000000	47,789969
2819,000000	47,909008
2818,000000	47,875040
2817,000000	47,754890
2816,000000	47,716542
2815,000000	47,827216
2814,000000	47,974466
2813,000000	48,000156
2812,000000	47,887939
2811,000000	47,786494
2810,000000	47,832773
2809,000000	47,984477
2808,000000	48,068814
2807,000000	47,993601
2806,000000	47,861128
2805,000000	47,842252
2804,000000	47,966687
2803,000000	48,089154
2802,000000	48,068673
2801,000000	47,937249
2800,000000	47,859203
2799,000000	47,934815
2798,000000	48,082535
2797,000000	48,134218
2796,000000	48,036241
2795,000000	47,916725
2794,000000	47,933163
2793,000000	48,080021
2792,000000	48,192091
2791,000000	48,147453
2790,000000	48,018949
2789,000000	47,984213
2788,000000	48,106799
2787,000000	48,260741
2786,000000	48,285450
2785,000000	48,178267
2784,000000	48,093836
2783,000000	48,159527
2782,000000	48,322425
2781,000000	48,410755
2780,000000	48,338629
2779,000000	48,212840
2778,000000	48,206927
2777,000000	48,348921
2776,000000	48,483691
2775,000000	48,463179
2774,000000	48,328423
2773,000000	48,258969
2772,000000	48,351833
2771,000000	48,506487
2770,000000	48,549505
2769,000000	48,442756
2768,000000	48,326469
2767,000000	48,351916
2766,000000	48,500786
2765,000000	48,605424
2764,000000	48,548030
2763,000000	48,406424
2762,000000	48,362503
2761,000000	48,479806
2760,000000	48,622975
2759,000000	48,624584
2758,000000	48,492034
2757,000000	48,397052
2756,000000	48,463631
2755,000000	48,619434
2754,000000	48,685712
2753,000000	48,592001
2752,000000	48,459060
2751,000000	48,454613
2750,000000	48,593337
2749,000000	48,715979
2748,000000	48,680317
2747,000000	48,535879
2746,000000	48,467515
2745,000000	48,568424
2744,000000	48,723434
2743,000000	48,751037
2742,000000	48,626953
2741,000000	48,511301
2740,000000	48,551082
2739,000000	48,704007
2738,000000	48,792843
2737,000000	48,719028
2736,000000	48,578831
2735,000000	48,549132
2734,000000	48,675465
2733,000000	48,814147
2732,000000	48,803951
2731,000000	48,664231
2730,000000	48,575040
2729,000000	48,655337
2728,000000	48,815212
2727,000000	48,867145
2726,000000	48,757247
2725,000000	48,629051
2724,000000	48,645699
2723,000000	48,794431
2722,000000	48,904517
2721,000000	48,852006
2720,000000	48,707626
2719,000000	48,653376
2718,000000	48,765275
2717,000000	48,917731
2716,000000	48,932467
2715,000000	48,797935
2714,000000	48,686496
2713,000000	48,742912
2712,000000	48,904459
2711,000000	48,979738
2710,000000	48,885206
2709,000000	48,744115
2708,000000	48,733623
2707,000000	48,871476
2706,000000	48,997813
2705,000000	48,967623
2704,000000	48,823993
2703,000000	48,749113
2702,000000	48,845976
2701,000000	49,009758
2700,000000	49,051347
2699,000000	48,929673
2698,000000	48,805538
2697,000000	48,843683
2696,000000	49,008419
2695,000000	49,109281
2694,000000	49,036607
2693,000000	48,892125
2692,000000	48,861621
2691,000000	48,990910
2690,000000	49,133407
2689,000000	49,126918
2688,000000	48,987942
2687,000000	48,894668
2686,000000	48,973020
2685,000000	49,139827
2684,000000	49,199590
2683,000000	49,085699
2682,000000	48,945471
2681,000000	48,958321
2680,000000	49,113347
2679,000000	49,224881
2678,000000	49,163319
2677,000000	49,011246
2676,000000	48,959531
2675,000000	49,076536
2674,000000	49,228098
2673,000000	49,237649
2672,000000	49,097779
2671,000000	48,982255
2670,000000	49,038240
2669,000000	49,204076
2668,000000	49,280811
2667,000000	49,177077
2666,000000	49,024928
2665,000000	49,016742
2664,000000	49,166966
2663,000000	49,296576
2662,000000	49,254779
2661,000000	49,100596
2660,000000	49,026813
2659,000000	49,127575
2658,000000	49,287462
2657,000000	49,319876
2656,000000	49,191022
2655,000000	49,063698
2654,000000	49,102208
2653,000000	49,268982
2652,000000	49,366230
2651,000000	49,280597
2650,000000	49,125807
2649,000000	49,101131
2648,000000	49,243693
2647,000000	49,384888
2646,000000	49,360372
2645,000000	49,208399
2644,000000	49,119919
2643,000000	49,207994
2642,000000	49,373252
2641,000000	49,422660
2640,000000	49,301719
2639,000000	49,163240
2638,000000	49,185103
2637,000000	49,349734
2636,000000	49,461498
2635,000000	49,388077
2634,000000	49,226625
2633,000000	49,182700
2632,000000	49,314456
2631,000000	49,464322
2630,000000	49,455327
2629,000000	49,305567
2628,000000	49,202579
2627,000000	49,276055
2626,000000	49,443047
2625,000000	49,506578
2624,000000	49,391913
2623,000000	49,241359
2622,000000	49,244609
2621,000000	49,404282
2620,000000	49,528917
2619,000000	49,469136
2618,000000	49,304936
2617,000000	49,245206
2616,000000	49,367648
2615,000000	49,525789
2614,000000	49,532393
2613,000000	49,386667
2612,000000	49,270989
2611,000000	49,329938
2610,000000	49,496347
2609,000000	49,570968
2608,000000	49,462983
2607,000000	49,303996
2606,000000	49,292129
2605,000000	49,446331
2604,000000	49,578621
2603,000000	49,526850
2602,000000	49,356738
2601,000000	49,279766
2600,000000	49,389175
2599,000000	49,548143
2598,000000	49,562109
2597,000000	49,414522
2596,000000	49,284028
2595,000000	49,327350
2594,000000	49,491355
2593,000000	49,576406
2592,000000	49,477253
2591,000000	49,315913
2590,000000	49,295822
2589,000000	49,449435
2588,000000	49,593586
2587,000000	49,555779
2586,000000	49,390384
2585,000000	49,309316
2584,000000	49,418366
2583,000000	49,589534
2582,000000	49,622126
2581,000000	49,486254
2580,000000	49,355781
2579,000000	49,397123
2578,000000	49,568925
2577,000000	49,670227
2576,000000	49,582407
2575,000000	49,418671
2574,000000	49,387842
2573,000000	49,535991
2572,000000	49,684777
2571,000000	49,653358
2570,000000	49,485828
2569,000000	49,393880
2568,000000	49,493745
2567,000000	49,664679
2566,000000	49,702414
2565,000000	49,566412
2564,000000	49,425629
2563,000000	49,453582
2562,000000	49,619878
2561,000000	49,724134
2560,000000	49,638837
2559,000000	49,468110
2558,000000	49,425399
2557,000000	49,567909
2556,000000	49,721374
2555,000000	49,697074
2554,000000	49,528074
2553,000000	49,427300
2552,000000	49,519992
2551,000000	49,692019
2550,000000	49,734859
2549,000000	49,599554
2548,000000	49,453122
2547,000000	49,475849
2546,000000	49,643190
2545,000000	49,753846
2544,000000	49,671984
2543,000000	49,498434
2542,000000	49,450990
2541,000000	49,593555
2540,000000	49,752673
2539,000000	49,732848
2538,000000	49,562676
2537,000000	49,456556
2536,000000	49,546471
2535,000000	49,721770
2534,000000	49,769956
2533,000000	49,636085
2532,000000	49,486354
2531,000000	49,504718
2530,000000	49,672431
2529,000000	49,786590
2528,000000	49,707199
2527,000000	49,531720
2526,000000	49,480550
2525,000000	49,622447
2524,000000	49,783340
2523,000000	49,763796
2522,000000	49,589581
2521,000000	49,478814
2520,000000	49,568147
2519,000000	49,746274
2518,000000	49,795439
2517,000000	49,658065
2516,000000	49,501687
2515,000000	49,515772
2514,000000	49,682597
2513,000000	49,797537
2512,000000	49,717740
2511,000000	49,538868
2510,000000	49,483280
2509,000000	49,621411
2508,000000	49,780376
2507,000000	49,759885
2506,000000	49,583871
2505,000000	49,471277
2504,000000	49,559285
2503,000000	49,736517
2502,000000	49,784335
2501,000000	49,644093
2500,000000	49,486750
2499,000000	49,502756
2498,000000	49,672587
2497,000000	49,787928
2496,000000	49,703989
2495,000000	49,522074
2494,000000	49,467827
2493,000000	49,610304
2492,000000	49,771171
2491,000000	49,746978
2490,000000	49,567489
2489,000000	49,456137
2488,000000	49,549142
2487,000000	49,729481
2486,000000	49,775247
2485,000000	49,632905
2484,000000	49,477512
2483,000000	49,498347
2482,000000	49,670376
2481,000000	49,782346
2480,000000	49,693583
2479,000000	49,510299
2478,000000	49,459489
2477,000000	49,606387
2476,000000	49,767609
2475,000000	49,740054
2474,000000	49,557741
2473,000000	49,448895
2472,000000	49,547453
2471,000000	49,727855
2470,000000	49,766793
2469,000000	49,616634
2468,000000	49,460849
2467,000000	49,488349
2466,000000	49,664210
2465,000000	49,772016
2464,000000	49,675976
2463,000000	49,491057
2462,000000	49,446320
2461,000000	49,598894
2460,000000	49,758410
2459,000000	49,724100
2458,000000	49,539026
2457,000000	49,435451
2456,000000	49,541038
2455,000000	49,722936
2454,000000	49,756182
2453,000000	49,602384
2452,000000	49,452243
2451,000000	49,490064
2450,000000	49,670384
2449,000000	49,772316
2448,000000	49,668406
2447,000000	49,485105
2446,000000	49,450441
2445,000000	49,610519
2444,000000	49,765712
2443,000000	49,720141
2442,000000	49,530916
2441,000000	49,436341
2440,000000	49,554292
2439,000000	49,735580
2438,000000	49,755194
2437,000000	49,591060
2436,000000	49,445660
2435,000000	49,496409
2434,000000	49,679195
2433,000000	49,767940
2432,000000	49,649972
2431,000000	49,466408
2430,000000	49,443507
2429,000000	49,610018
2428,000000	49,756334
2427,000000	49,695818
2426,000000	49,501938
2425,000000	49,417541
2424,000000	49,546634
2423,000000	49,724591
2422,000000	49,729161
2421,000000	49,556291
2420,000000	49,421004
2419,000000	49,488664
2418,000000	49,674044
2417,000000	49,748034
2416,000000	49,616452
2415,000000	49,438184
2414,000000	49,432294
2413,000000	49,606248
2412,000000	49,741495
2411,000000	49,663541
2410,000000	49,465939
2409,000000	49,394874
2408,000000	49,537767
2407,000000	49,712861
2406,000000	49,699429
2405,000000	49,515644
2404,000000	49,390478
2403,000000	49,476632
2402,000000	49,664473
2401,000000	49,720083
2400,000000	49,573629
2399,000000	49,403761
2398,000000	49,420243
2397,000000	49,604082
2396,000000	49,725749
2395,000000	49,628034
2394,000000	49,423830
2393,000000	49,355930
2392,000000	49,484698
2391,000000	49,599094
2390,000000	49,470141
2389,000000	49,116461
2388,000000	48,744740
2387,000000	48,450155
2386,000000	48,053729
2385,000000	47,288049
2384,000000	46,078689
2383,000000	44,592274
2382,000000	43,018586
2381,000000	41,355706
2380,000000	39,467509
2379,000000	37,310345
2378,000000	35,052211
2377,000000	32,933591
2376,000000	31,034882
2375,000000	29,241605
2374,000000	27,434843
2373,000000	25,662031
2372,000000	24,071334
2371,000000	22,724016
2370,000000	21,535723
2369,000000	20,405836
2368,000000	19,343156
2367,000000	18,429599
2366,000000	17,716269
2365,000000	17,179497
2364,000000	16,759706
2363,000000	16,420196
2362,000000	16,178949
2361,000000	16,106916
2360,000000	16,256364
2359,000000	16,590229
2358,000000	17,041537
2357,000000	17,642729
2356,000000	18,537790
2355,000000	19,821148
2354,000000	21,464914
2353,000000	23,465654
2352,000000	25,875885
2351,000000	28,473753
2350,000000	30,458548
2349,000000	30,842718
2348,000000	29,342386
2347,000000	26,777673
2346,000000	24,419086
2345,000000	22,981793
2344,000000	22,335699
2343,000000	22,019876
2342,000000	21,798834
2341,000000	21,699263
2340,000000	21,774725
2339,000000	21,975635
2338,000000	22,206727
2337,000000	22,395967
2336,000000	22,529850
2335,000000	22,643821
2334,000000	22,762654
2333,000000	22,858012
2332,000000	22,913070
2331,000000	23,028879
2330,000000	23,381356
2329,000000	24,021950
2328,000000	24,772734
2327,000000	25,375446
2326,000000	25,734561
2325,000000	25,990977
2324,000000	26,364879
2323,000000	26,959039
2322,000000	27,709063
2321,000000	28,514536
2320,000000	29,390146
2319,000000	30,432875
2318,000000	31,623381
2317,000000	32,733086
2316,000000	33,525918
2315,000000	34,038179
2314,000000	34,554865
2313,000000	35,288730
2312,000000	36,166643
2311,000000	36,982108
2310,000000	37,678360
2309,000000	38,397391
2308,000000	39,269010
2307,000000	40,229332
2306,000000	41,078062
2305,000000	41,694897
2304,000000	42,173055
2303,000000	42,709448
2302,000000	43,359690
2301,000000	43,958004
2300,000000	44,331147
2299,000000	44,549906
2298,000000	44,861903
2297,000000	45,369452
2296,000000	45,889435
2295,000000	46,195445
2294,000000	46,316550
2293,000000	46,495394
2292,000000	46,876973
2291,000000	47,337356
2290,000000	47,645846
2289,000000	47,746521
2288,000000	47,825047
2287,000000	48,087177
2286,000000	48,499051
2285,000000	48,801035
2284,000000	48,807521
2283,000000	48,639782
2282,000000	48,577673
2281,000000	48,704173
2280,000000	48,808780
2279,000000	48,687265
2278,000000	48,427831
2277,000000	48,301336
2276,000000	48,413757
2275,000000	48,581495
2274,000000	48,570717
2273,000000	48,381135
2272,000000	48,236389
2271,000000	48,310361
2270,000000	48,514752
2269,000000	48,600979
2268,000000	48,466139
2267,000000	48,293790
2266,000000	48,330536
2265,000000	48,563407
2264,000000	48,727703
2263,000000	48,650198
2262,000000	48,476871
2261,000000	48,477289
2260,000000	48,693486
2259,000000	48,895554
2258,000000	48,880049
2257,000000	48,718511
2256,000000	48,658713
2255,000000	48,819785
2254,000000	49,048818
2253,000000	49,103974
2252,000000	48,952400
2251,000000	48,822026
2250,000000	48,920160
2249,000000	49,160586
2248,000000	49,264047
2247,000000	49,122755
2246,000000	48,947262
2245,000000	48,989518
2244,000000	49,214661
2243,000000	49,353723
2242,000000	49,253591
2241,000000	49,062478
2240,000000	49,033212
2239,000000	49,212228
2238,000000	49,388727
2237,000000	49,353399
2236,000000	49,156482
2235,000000	49,054009
2234,000000	49,191513
2233,000000	49,408242
2232,000000	49,432373
2231,000000	49,235972
2230,000000	49,079819
2229,000000	49,173438
2228,000000	49,398970
2227,000000	49,471211
2226,000000	49,308607
2225,000000	49,126834
2224,000000	49,155448
2223,000000	49,353454
2222,000000	49,471139
2221,000000	49,358545
2220,000000	49,148053
2219,000000	49,097239
2218,000000	49,269966
2217,000000	49,445962
2216,000000	49,391373
2215,000000	49,165454
2214,000000	49,055170
2213,000000	49,199517
2212,000000	49,403766
2211,000000	49,396898
2210,000000	49,186548
2209,000000	49,041070
2208,000000	49,135974
2207,000000	49,340360
2206,000000	49,392792
2205,000000	49,225693
2204,000000	49,042801
2203,000000	49,068258
2202,000000	49,270493
2201,000000	49,392399
2200,000000	49,269280
2199,000000	49,049572
2198,000000	49,013436
2197,000000	49,206615
2196,000000	49,371580
2195,000000	49,285777
2194,000000	49,057220
2193,000000	48,976899
2192,000000	49,137840
2191,000000	49,323873
2190,000000	49,295995
2189,000000	49,088412
2188,000000	48,954793
2187,000000	49,054344
2186,000000	49,257441
2185,000000	49,302475
2184,000000	49,121624
2183,000000	48,935677
2182,000000	48,982383
2181,000000	49,201597
2180,000000	49,300954
2179,000000	49,140899
2178,000000	48,922493
2177,000000	48,922461
2176,000000	49,127838
2175,000000	49,260994
2174,000000	49,145678
2173,000000	48,922269
2172,000000	48,859104
2171,000000	49,018146
2170,000000	49,187156
2169,000000	49,143961
2168,000000	48,930878
2167,000000	48,810140
2166,000000	48,935690
2165,000000	49,144332
2164,000000	49,154168
2163,000000	48,936004
2162,000000	48,763747
2161,000000	48,853765
2160,000000	49,076311
2159,000000	49,131574
2158,000000	48,944244
2157,000000	48,750883
2156,000000	48,784145
2155,000000	48,983582
2154,000000	49,085573
2153,000000	48,952403
2152,000000	48,739623
2151,000000	48,703949
2150,000000	48,884811
2149,000000	49,043970
2148,000000	48,959007
2147,000000	48,721393
2146,000000	48,628917
2145,000000	48,795715
2144,000000	48,992019
2143,000000	48,947938
2142,000000	48,712688
2141,000000	48,580912
2140,000000	48,701600
2139,000000	48,894120
2138,000000	48,894063
2137,000000	48,688910
2136,000000	48,523964
2135,000000	48,596564
2134,000000	48,811689
2133,000000	48,893273
2132,000000	48,727506
2131,000000	48,514193
2130,000000	48,521378
2129,000000	48,731110
2128,000000	48,853420
2127,000000	48,710232
2126,000000	48,474962
2125,000000	48,441796
2124,000000	48,634350
2123,000000	48,784469
2122,000000	48,689050
2121,000000	48,463202
2120,000000	48,381780
2119,000000	48,530646
2118,000000	48,703850
2117,000000	48,662188
2116,000000	48,432879
2115,000000	48,289688
2114,000000	48,409158
2113,000000	48,633783
2112,000000	48,664390
2111,000000	48,452909
2110,000000	48,273461
2109,000000	48,353895
2108,000000	48,573389
2107,000000	48,630909
2106,000000	48,446113
2105,000000	48,253651
2104,000000	48,286870
2103,000000	48,487604
2102,000000	48,590963
2101,000000	48,457279
2100,000000	48,243875
2099,000000	48,211864
2098,000000	48,398648
2097,000000	48,556676
2096,000000	48,463748
2095,000000	48,223824
2094,000000	48,138184
2093,000000	48,298802
2092,000000	48,456885
2091,000000	48,365372
2090,000000	48,121293
2089,000000	48,030687
2088,000000	48,202722
2087,000000	48,416649
2086,000000	48,414472
2085,000000	48,214834
2084,000000	48,069611
2083,000000	48,154024
2082,000000	48,354545
2081,000000	48,403038
2080,000000	48,212162
2079,000000	48,003582
2078,000000	48,038914
2077,000000	48,265637
2076,000000	48,369842
2075,000000	48,199928
2074,000000	47,978841
2073,000000	47,998930
2072,000000	48,222329
2071,000000	48,345652
2070,000000	48,209651
2069,000000	47,979827
2068,000000	47,901882
2067,000000	47,995299
2066,000000	48,068897
2065,000000	47,983954
2064,000000	47,829509
2063,000000	47,817485
2062,000000	48,011909
2061,000000	48,216035
2060,000000	48,190896
2059,000000	47,970009
2058,000000	47,844517
2057,000000	47,984205
2056,000000	48,200435
2055,000000	48,196700
2054,000000	47,971467
2053,000000	47,816866
2052,000000	47,921255
2051,000000	48,131988
2050,000000	48,169394
2049,000000	47,981763
2048,000000	47,797674
2047,000000	47,834487
2046,000000	48,028824
2045,000000	48,102541
2044,000000	47,905573
2043,000000	47,630154
2042,000000	47,592649
2041,000000	47,826756
2040,000000	48,025507
2039,000000	47,946869
2038,000000	47,737690
2037,000000	47,715082
2036,000000	47,920885
2035,000000	48,073174
2034,000000	47,965054
2033,000000	47,737353
2032,000000	47,674264
2031,000000	47,835440
2030,000000	47,995165
2029,000000	47,934691
2028,000000	47,712820
2027,000000	47,595323
2026,000000	47,725099
2025,000000	47,925912
2024,000000	47,915620
2023,000000	47,684194
2022,000000	47,517920
2021,000000	47,596318
2020,000000	47,716505
2019,000000	47,576112
2018,000000	47,232596
2017,000000	47,070678
2016,000000	47,302615
2015,000000	47,687106
2014,000000	47,839573
2013,000000	47,687736
2012,000000	47,502396
2011,000000	47,530749
2010,000000	47,712682
2009,000000	47,790938
2008,000000	47,642315
2007,000000	47,438805
2006,000000	47,441361
2005,000000	47,656141
2004,000000	47,800824
2003,000000	47,665999
2002,000000	47,409906
2001,000000	47,355257
2000,000000	47,544152
1999,000000	47,687522
1998,000000	47,579136
1997,000000	47,364298
1996,000000	47,276545
1995,000000	47,262246
1994,000000	47,071500
1993,000000	46,674619
1992,000000	46,384402
1991,000000	46,491292
1990,000000	46,903194
1989,000000	47,250121
1988,000000	47,294697
1987,000000	47,154566
1986,000000	47,113174
1985,000000	47,278214
1984,000000	47,472849
1983,000000	47,461766
1982,000000	47,249317
1981,000000	47,089333
1980,000000	47,173854
1979,000000	47,376785
1978,000000	47,404877
1977,000000	47,190538
1976,000000	46,995614
1975,000000	47,061972
1974,000000	47,279828
1973,000000	47,337799
1972,000000	47,137233
1971,000000	46,881593
1970,000000	46,753315
1969,000000	46,683839
1968,000000	46,532553
1967,000000	46,360724
1966,000000	46,378341
1965,000000	46,653003
1964,000000	46,986814
1963,000000	47,108562
1962,000000	46,950445
1961,000000	46,717915
1960,000000	46,678599
1959,000000	46,859325
1958,000000	46,995586
1957,000000	46,860114
1956,000000	46,589451
1955,000000	46,531171
1954,000000	46,761574
1953,000000	46,963551
1952,000000	46,869467
1951,000000	46,624427
1950,000000	46,544637
1949,000000	46,664202
1948,000000	46,725791
1947,000000	46,533663
1946,000000	46,124425
1945,000000	45,650656
1944,000000	45,280097
1943,000000	45,171575
1942,000000	45,375005
1941,000000	45,757986
1940,000000	46,141852
1939,000000	46,458162
1938,000000	46,668305
1937,000000	46,662416
1936,000000	46,433488
1935,000000	46,234491
1934,000000	46,309090
1933,000000	46,527025
1932,000000	46,548460
1931,000000	46,324460
1930,000000	46,163922
1929,000000	46,271797
1928,000000	46,463230
1927,000000	46,410176
1926,000000	46,001293
1925,000000	45,432723
1924,000000	45,062836
1923,000000	45,115730
1922,000000	45,364820
1921,000000	45,246334
1920,000000	44,550400
1919,000000	43,854911
1918,000000	43,909055
1917,000000	44,670331
1916,000000	45,404386
1915,000000	45,689656
1914,000000	45,782970
1913,000000	45,912392
1912,000000	45,827091
1911,000000	45,360892
1910,000000	44,926979
1909,000000	45,005024
1908,000000	45,442413
1907,000000	45,706045
1906,000000	45,622450
1905,000000	45,482219
1904,000000	45,526385
1903,000000	45,677663
1902,000000	45,746337
1901,000000	45,657323
1900,000000	45,482921
1899,000000	45,366694
1898,000000	45,352955
1897,000000	45,273884
1896,000000	44,986823
1895,000000	44,712830
1894,000000	44,799537
1893,000000	45,075399
1892,000000	44,908278
1891,000000	44,137251
1890,000000	43,498392
1889,000000	43,717680
1888,000000	44,540187
1887,000000	45,117632
1886,000000	45,108021
1885,000000	44,904763
1884,000000	44,911748
1883,000000	45,091914
1882,000000	45,209841
1881,000000	45,151088
1880,000000	44,967217
1879,000000	44,835278
1878,000000	44,919501
1877,000000	45,117085
1876,000000	45,112179
1875,000000	44,850124
1874,000000	44,650336
1873,000000	44,563850
1872,000000	44,028131
1871,000000	42,668970
1870,000000	41,174761
1869,000000	40,712037
1868,000000	41,555100
1867,000000	42,849050
1866,000000	43,725846
1865,000000	44,102418
1864,000000	44,302935
1863,000000	44,458642
1862,000000	44,505027
1861,000000	44,422141
1860,000000	44,263710
1859,000000	44,139730
1858,000000	44,199246
1857,000000	44,423765
1856,000000	44,517413
1855,000000	44,295099
1854,000000	44,052921
1853,000000	44,159028
1852,000000	44,392220
1851,000000	44,217827
1850,000000	43,651459
1849,000000	43,211924
1848,000000	42,915791
1847,000000	42,043344
1846,000000	40,324504
1845,000000	38,788195
1844,000000	38,806819
1843,000000	40,486887
1842,000000	42,511708
1841,000000	43,571556
1840,000000	43,539817
1839,000000	43,199304
1838,000000	43,159106
1837,000000	43,335179
1836,000000	43,389147
1835,000000	43,270189
1834,000000	43,073033
1833,000000	42,581670
1832,000000	41,485033
1831,000000	40,139948
1830,000000	39,540664
1829,000000	40,135253
1828,000000	41,081224
1827,000000	41,264319
1826,000000	40,738384
1825,000000	40,545967
1824,000000	41,241406
1823,000000	42,279038
1822,000000	42,905751
1821,000000	42,984304
1820,000000	42,788128
1819,000000	42,544148
1818,000000	42,425993
1817,000000	42,548506
1816,000000	42,733919
1815,000000	42,619214
1814,000000	42,154231
1813,000000	41,669868
1812,000000	41,373941
1811,000000	41,175944
1810,000000	41,083247
1809,000000	41,311595
1808,000000	41,824536
1807,000000	42,193280
1806,000000	42,103818
1805,000000	41,663945
1804,000000	41,068544
1803,000000	40,364222
1802,000000	39,694416
1801,000000	39,369665
1800,000000	39,509180
1799,000000	39,924582
1798,000000	40,421595
1797,000000	40,785079
1796,000000	40,496088
1795,000000	39,111688
1794,000000	37,154749
1793,000000	35,967868
1792,000000	36,367487
1791,000000	37,858811
1790,000000	39,421925
1789,000000	40,493337
1788,000000	40,905765
1787,000000	40,588926
1786,000000	39,851292
1785,000000	39,411222
1784,000000	39,581163
1783,000000	39,838093
1782,000000	39,653472
1781,000000	39,307156
1780,000000	39,353945
1779,000000	39,740088
1778,000000	39,987550
1777,000000	39,800706
1776,000000	38,960693
1775,000000	37,184799
1774,000000	34,840774
1773,000000	33,289279
1772,000000	33,587909
1771,000000	35,084556
1770,000000	36,237564
1769,000000	36,623234
1768,000000	37,170788
1767,000000	38,393922
1766,000000	39,439464
1765,000000	39,268093
1764,000000	38,014823
1763,000000	36,766629
1762,000000	36,402527
1761,000000	36,937326
1760,000000	37,675952
1759,000000	37,843162
1758,000000	37,373847
1757,000000	37,059192
1756,000000	37,496341
1755,000000	38,058839
1754,000000	37,524386
1753,000000	35,734476
1752,000000	33,908259
1751,000000	33,156747
1750,000000	33,443515
1749,000000	34,194515
1748,000000	35,130974
1747,000000	36,040796
1746,000000	36,474521
1745,000000	36,298892
1744,000000	36,004773
1743,000000	35,868455
1742,000000	35,399675
1741,000000	34,373493
1740,000000	33,758524
1739,000000	34,488614
1738,000000	35,524572
1737,000000	34,618717
1736,000000	31,328322
1735,000000	28,135854
1734,000000	27,779065
1733,000000	30,196281
1732,000000	33,041839
1731,000000	34,624154
1730,000000	35,284645
1729,000000	36,007825
1728,000000	36,842461
1727,000000	37,193206
1726,000000	36,919849
1725,000000	36,508716
1724,000000	36,404304
1723,000000	36,510050
1722,000000	36,230141
1721,000000	34,824047
1720,000000	32,130967
1719,000000	29,158500
1718,000000	27,516280
1717,000000	27,914965
1716,000000	29,576343
1715,000000	31,381684
1714,000000	33,030969
1713,000000	34,581939
1712,000000	35,597670
1711,000000	35,636587
1710,000000	35,119489
1709,000000	34,677633
1708,000000	34,039018
1707,000000	32,738766
1706,000000	31,571810
1705,000000	31,698874
1704,000000	32,274168
1703,000000	30,914697
1702,000000	27,253864
1701,000000	24,257105
1700,000000	24,544544
1699,000000	26,850911
1698,000000	27,947891
1697,000000	27,138879
1696,000000	26,845289
1695,000000	28,855526
1694,000000	32,007983
1693,000000	34,037274
1692,000000	34,223896
1691,000000	33,552664
1690,000000	33,095322
1689,000000	32,946528
1688,000000	32,225014
1687,000000	29,953448
1686,000000	26,481078
1685,000000	23,909357
1684,000000	24,231158
1683,000000	27,038751
1682,000000	29,979207
1681,000000	31,566941
1680,000000	32,261690
1679,000000	32,620887
1678,000000	32,007091
1677,000000	30,081987
1676,000000	28,281167
1675,000000	28,287006
1674,000000	29,676042
1673,000000	30,399714
1672,000000	29,459999
1671,000000	27,921250
1670,000000	27,308127
1669,000000	28,042189
1668,000000	29,555200
1667,000000	31,010500
1666,000000	31,601083
1665,000000	30,915836
1664,000000	29,522828
1663,000000	28,699745
1662,000000	29,142531
1661,000000	30,269218
1660,000000	31,058855
1659,000000	31,148785
1658,000000	30,645971
1657,000000	29,189832
1656,000000	26,114069
1655,000000	21,817979
1654,000000	18,404553
1653,000000	18,144630
1652,000000	21,133709
1651,000000	24,909875
1650,000000	26,647068
1649,000000	25,676255
1648,000000	23,674723
1647,000000	22,720617
1646,000000	23,533213
1645,000000	25,394453
1644,000000	27,134440
1643,000000	28,041243
1642,000000	28,133892
1641,000000	27,849366
1640,000000	27,348469
1639,000000	26,201049
1638,000000	24,092648
1637,000000	21,761174
1636,000000	20,685982
1635,000000	21,609039
1634,000000	23,736695
1633,000000	25,638513
1632,000000	26,521384
1631,000000	26,442130
1630,000000	25,786273
1629,000000	25,014538
1628,000000	24,570681
1627,000000	24,495305
1626,000000	24,266944
1625,000000	23,494090
1624,000000	22,643530
1623,000000	22,594162
1622,000000	23,462869
1621,000000	24,269553
1620,000000	23,925868
1619,000000	22,349271
1618,000000	20,533076
1617,000000	19,696928
1616,000000	20,310069
1615,000000	21,767141
1614,000000	22,977881
1613,000000	23,334499
1612,000000	23,065609
1611,000000	22,690981
1610,000000	22,403347
1609,000000	22,154943
1608,000000	22,005963
1607,000000	22,037325
1606,000000	22,086493
1605,000000	21,936650
1604,000000	21,676474
1603,000000	21,559157
1602,000000	21,581672
1601,000000	21,524145
1600,000000	21,350310
1599,000000	21,226274
1598,000000	21,162252
1597,000000	20,975528
1596,000000	20,650699
1595,000000	20,416459
1594,000000	20,382594
1593,000000	20,373719
1592,000000	20,227170
1591,000000	20,022640
1590,000000	19,895446
1589,000000	19,817393
1588,000000	19,689505
1587,000000	19,511631
1586,000000	19,341934
1585,000000	19,184284
1584,000000	19,010122
1583,000000	18,830927
1582,000000	18,678984
1581,000000	18,501323
1580,000000	18,087269
1579,000000	17,163155
1578,000000	15,754908
1577,000000	14,483171
1576,000000	14,214075
1575,000000	15,146193
1574,000000	16,389906
1573,000000	16,772251
1572,000000	16,027195
1571,000000	14,946282
1570,000000	14,416965
1569,000000	14,610139
1568,000000	15,085614
1567,000000	15,382084
1566,000000	15,369420
1565,000000	15,205805
1564,000000	15,006381
1563,000000	14,489239
1562,000000	13,134602
1561,000000	10,975544
1560,000000	9,064010
1559,000000	8,644827
1558,000000	9,803096
1557,000000	11,382501
1556,000000	12,352905
1555,000000	12,779398
1554,000000	13,229075
1553,000000	13,771260
1552,000000	14,050021
1551,000000	14,030944
1550,000000	14,060409
1549,000000	14,254262
1548,000000	14,294050
1547,000000	13,916792
1546,000000	13,250535
1545,000000	12,554856
1544,000000	11,874047
1543,000000	11,082411
1542,000000	10,167839
1541,000000	9,414052
1540,000000	9,326505
1539,000000	10,234623
1538,000000	11,795708
1537,000000	13,034884
1536,000000	13,185722
1535,000000	12,495358
1534,000000	11,926050
1533,000000	12,075972
1532,000000	12,655159
1531,000000	13,041706
1530,000000	12,973517
1529,000000	12,575210
1528,000000	12,037620
1527,000000	11,536954
1526,000000	11,222408
1525,000000	11,008753
1524,000000	10,564391
1523,000000	9,780212
1522,000000	9,101194
1521,000000	9,049960
1520,000000	9,514064
1519,000000	9,863108
1518,000000	9,783621
1517,000000	9,611927
1516,000000	9,731187
1515,000000	10,005151
1514,000000	10,048104
1513,000000	9,804228
1512,000000	9,512382
1511,000000	9,216370
1510,000000	8,651236
1509,000000	7,691094
1508,000000	6,685304
1507,000000	6,208410
1506,000000	6,538779
1505,000000	7,426978
1504,000000	8,315352
1503,000000	8,752781
1502,000000	8,659482
1501,000000	8,255073
1500,000000	7,772968
1499,000000	7,289307
1498,000000	6,837367
1497,000000	6,558564
1496,000000	6,604469
1495,000000	6,896141
1494,000000	7,122689
1493,000000	7,036977
1492,000000	6,694387
1491,000000	6,359055
1490,000000	6,233598
1489,000000	6,326489
1488,000000	6,538647
1487,000000	6,790135
1486,000000	7,041522
1485,000000	7,239092
1484,000000	7,314507
1483,000000	7,265193
1482,000000	7,187574
1481,000000	7,168477
1480,000000	7,159851
1479,000000	7,037468
1478,000000	6,777278
1477,000000	6,477457
1476,000000	6,191367
1475,000000	5,862696
1474,000000	5,499860
1473,000000	5,287600
1472,000000	5,400066
1471,000000	5,755986
1470,000000	6,080403
1469,000000	6,171258
1468,000000	6,013630
1467,000000	5,697427
1466,000000	5,352987
1465,000000	5,138801
1464,000000	5,136865
1463,000000	5,237848
1462,000000	5,217913
1461,000000	4,948883
1460,000000	4,467794
1459,000000	3,898138
1458,000000	3,406334
1457,000000	3,184706
1456,000000	3,307183
1455,000000	3,593814
1454,000000	3,754931
1453,000000	3,690287
1452,000000	3,529407
1451,000000	3,379368
1450,000000	3,204594
1449,000000	2,981432
1448,000000	2,801317
1447,000000	2,729822
1446,000000	2,694680
1445,000000	2,605131
1444,000000	2,480778
1443,000000	2,381877
1442,000000	2,297236
1441,000000	2,183210
1440,000000	2,037183
1439,000000	1,872867
1438,000000	1,695145
1437,000000	1,552272
1436,000000	1,524791
1435,000000	1,606053
1434,000000	1,675324
1433,000000	1,651006
1432,000000	1,586723
1431,000000	1,560919
1430,000000	1,565103
1429,000000	1,564152
1428,000000	1,576263
1427,000000	1,613512
1426,000000	1,630173
1425,000000	1,605107
1424,000000	1,596103
1423,000000	1,631077
1422,000000	1,633586
1421,000000	1,546151
1420,000000	1,448963
1419,000000	1,455473
1418,000000	1,550558
1417,000000	1,636556
1416,000000	1,678088
1415,000000	1,704413
1414,000000	1,712438
1413,000000	1,675227
1412,000000	1,615744
1411,000000	1,579803
1410,000000	1,556911
1409,000000	1,505824
1408,000000	1,433062
1407,000000	1,372846
1406,000000	1,321775
1405,000000	1,261536
1404,000000	1,214055
1403,000000	1,200219
1402,000000	1,181601
1401,000000	1,115180
1400,000000	1,034275
1399,000000	0,997031
1398,000000	0,989355
1397,000000	0,956342
1396,000000	0,901432
1395,000000	0,874502
1394,000000	0,880954
1393,000000	0,882179
1392,000000	0,866889
1391,000000	0,852217
1390,000000	0,828288
1389,000000	0,774159
1388,000000	0,713589
1387,000000	0,688873
1386,000000	0,690174
1385,000000	0,674187
1384,000000	0,638020
1383,000000	0,612186
1382,000000	0,596356
1381,000000	0,564390
1380,000000	0,522544
1379,000000	0,499311
1378,000000	0,489007
1377,000000	0,461826
1376,000000	0,422216
1375,000000	0,399934
1374,000000	0,394447
1373,000000	0,380489
1372,000000	0,358773
1371,000000	0,349511
1370,000000	0,346463
1369,000000	0,328638
1368,000000	0,304997
1367,000000	0,299005
1366,000000	0,300460
1365,000000	0,283243
1364,000000	0,255904
1363,000000	0,247189
1362,000000	0,253195
1361,000000	0,248573
1360,000000	0,235985
1359,000000	0,235861
1358,000000	0,240655
1357,000000	0,227733
1356,000000	0,205849
1355,000000	0,200241
1354,000000	0,204955
1353,000000	0,195294
1352,000000	0,176183
1351,000000	0,170605
1350,000000	0,173760
1349,000000	0,163547
1348,000000	0,145687
1347,000000	0,141967
1346,000000	0,146177
1345,000000	0,136262
1344,000000	0,118553
1343,000000	0,115264
1342,000000	0,119990
1341,000000	0,110755
1340,000000	0,093731
1339,000000	0,091192
1338,000000	0,097780
1337,000000	0,092015
1336,000000	0,079101
1335,000000	0,079555
1334,000000	0,087228
1333,000000	0,081021
1332,000000	0,067244
1331,000000	0,067905
1330,000000	0,077933
1329,000000	0,075669
1328,000000	0,066023
1327,000000	0,069536
1326,000000	0,081069
1325,000000	0,079539
1324,000000	0,069929
1323,000000	0,073112
1322,000000	0,085060
1321,000000	0,085251
1320,000000	0,077710
1319,000000	0,082159
1318,000000	0,093586
1317,000000	0,091998
1316,000000	0,082322
1315,000000	0,084784
1314,000000	0,095136
1313,000000	0,093749
1312,000000	0,084482
1311,000000	0,086301
1310,000000	0,094489
1309,000000	0,089844
1308,000000	0,077639
1307,000000	0,078005
1306,000000	0,086507
1305,000000	0,082872
1304,000000	0,070540
1303,000000	0,068592
1302,000000	0,074102
1301,000000	0,068959
1300,000000	0,057506
1299,000000	0,057720
1298,000000	0,065246
1297,000000	0,061279
1296,000000	0,050269
1295,000000	0,051015
1294,000000	0,059700
1293,000000	0,057677
1292,000000	0,048138
1291,000000	0,048861
1290,000000	0,056459
1289,000000	0,053936
1288,000000	0,045043
1287,000000	0,046738
1286,000000	0,055396
1285,000000	0,053476
1284,000000	0,044404
1283,000000	0,045383
1282,000000	0,053291
1281,000000	0,051430
1280,000000	0,043606
1279,000000	0,046454
1278,000000	0,055810
1277,000000	0,053740
1276,000000	0,043735
1275,000000	0,044069
1274,000000	0,052787
1273,000000	0,052963
1272,000000	0,046366
1271,000000	0,048072
1270,000000	0,055460
1269,000000	0,052867
1268,000000	0,044320
1267,000000	0,046674
1266,000000	0,055972
1265,000000	0,055046
1264,000000	0,046383
1263,000000	0,046555
1262,000000	0,053409
1261,000000	0,051440
1260,000000	0,043527
1259,000000	0,044658
1258,000000	0,051208
1257,000000	0,048157
1256,000000	0,039887
1255,000000	0,042150
1254,000000	0,050853
1253,000000	0,049030
1252,000000	0,039939
1251,000000	0,040405
1250,000000	0,048206
1249,000000	0,047172
1248,000000	0,039550
1247,000000	0,040846
1246,000000	0,049325
1245,000000	0,049597
1244,000000	0,044050
1243,000000	0,047197
1242,000000	0,056640
1241,000000	0,057400
1240,000000	0,051442
1239,000000	0,053641
1238,000000	0,061875
1237,000000	0,061601
1236,000000	0,055391
1235,000000	0,058036
1234,000000	0,067345
1233,000000	0,068245
1232,000000	0,062049
1231,000000	0,063491
1230,000000	0,071075
1229,000000	0,070486
1228,000000	0,063590
1227,000000	0,064387
1226,000000	0,070927
1225,000000	0,069593
1224,000000	0,062821
1223,000000	0,064077
1222,000000	0,070478
1221,000000	0,067187
1220,000000	0,057422
1219,000000	0,056846
1218,000000	0,063482
1217,000000	0,062599
1216,000000	0,054727
1215,000000	0,053169
1214,000000	0,057025
1213,000000	0,053655
1212,000000	0,044932
1211,000000	0,043441
1210,000000	0,047837
1209,000000	0,046003
1208,000000	0,040002
1207,000000	0,041658
1206,000000	0,048061
1205,000000	0,045863
1204,000000	0,037530
1203,000000	0,036073
1202,000000	0,040679
1201,000000	0,038702
1200,000000	0,031128
1199,000000	0,031119
1198,000000	0,037514
1197,000000	0,036566
1196,000000	0,028066
1195,000000	0,025166
1194,000000	0,027783
1193,000000	0,024412
1192,000000	0,017777
1191,000000	0,019711
1190,000000	0,027638
1189,000000	0,029726
1188,000000	0,026693
1187,000000	0,027511
1186,000000	0,031907
1185,000000	0,030112
1184,000000	0,023232
1183,000000	0,023423
1182,000000	0,028741
1181,000000	0,027989
1180,000000	0,023070
1179,000000	0,023033
1178,000000	0,027174
1177,000000	0,025558
1176,000000	0,020019
1175,000000	0,021228
1174,000000	0,027421
1173,000000	0,025900
1172,000000	0,017043
1171,000000	0,014237
1170,000000	0,018023
1169,000000	0,017224
1168,000000	0,014474
1167,000000	0,016432
1166,000000	0,021240
1165,000000	0,021729
1164,000000	0,017830
1163,000000	0,018016
1162,000000	0,021900
1161,000000	0,021436
1160,000000	0,017553
1159,000000	0,019132
1158,000000	0,025407
1157,000000	0,025398
1156,000000	0,019524
1155,000000	0,019144
1154,000000	0,023535
1153,000000	0,022221
1152,000000	0,015991
1151,000000	0,015156
1150,000000	0,019271
1149,000000	0,019290
1148,000000	0,015971
1147,000000	0,016926
1146,000000	0,021444
1145,000000	0,020743
1144,000000	0,015265
1143,000000	0,015100
1142,000000	0,019834
1141,000000	0,019442
1140,000000	0,014879
1139,000000	0,014699
1138,000000	0,018660
1137,000000	0,018269
1136,000000	0,013240
1135,000000	0,013007
1134,000000	0,017127
1133,000000	0,016410
1132,000000	0,012980
1131,000000	0,014503
1130,000000	0,019449
1129,000000	0,019513
1128,000000	0,015973
1127,000000	0,016461
1126,000000	0,020822
1125,000000	0,019830
1124,000000	0,014737
1123,000000	0,015103
1122,000000	0,019182
1121,000000	0,019181
1120,000000	0,015373
1119,000000	0,016561
1118,000000	0,021364
1117,000000	0,020396
1116,000000	0,014910
1115,000000	0,013572
1114,000000	0,017062
1113,000000	0,017073
1112,000000	0,014228
1111,000000	0,015084
1110,000000	0,018233
1109,000000	0,016238
1108,000000	0,011085
1107,000000	0,010682
1106,000000	0,014904
1105,000000	0,015855
1104,000000	0,013215
1103,000000	0,014623
1102,000000	0,019363
1101,000000	0,018259
1100,000000	0,012692
1099,000000	0,011412
1098,000000	0,014469
1097,000000	0,014824
1096,000000	0,011649
1095,000000	0,012517
1094,000000	0,016263
1093,000000	0,015563
1092,000000	0,011594
1091,000000	0,012070
1090,000000	0,016512
1089,000000	0,017921
1088,000000	0,015841
1087,000000	0,015317
1086,000000	0,018078
1085,000000	0,017292
1084,000000	0,012532
1083,000000	0,011679
1082,000000	0,014229
1081,000000	0,013870
1080,000000	0,011382
1079,000000	0,011588
1078,000000	0,015091
1077,000000	0,015521
1076,000000	0,012471
1075,000000	0,013372
1074,000000	0,017152
1073,000000	0,016570
1072,000000	0,011859
1071,000000	0,010744
1070,000000	0,013717
1069,000000	0,013449
1068,000000	0,009966
1067,000000	0,009940
1066,000000	0,012585
1065,000000	0,013162
1064,000000	0,012062
1063,000000	0,012603
1062,000000	0,015011
1061,000000	0,014616
1060,000000	0,012277
1059,000000	0,013401
1058,000000	0,017333
1057,000000	0,017856
1056,000000	0,014703
1055,000000	0,013433
1054,000000	0,015149
1053,000000	0,013538
1052,000000	0,008778
1051,000000	0,007878
1050,000000	0,009647
1049,000000	0,010470
1048,000000	0,010436
1047,000000	0,012575
1046,000000	0,015690
1045,000000	0,015189
1044,000000	0,011428
1043,000000	0,011234
1042,000000	0,014479
1041,000000	0,014466
1040,000000	0,011747
1039,000000	0,012086
1038,000000	0,016049
1037,000000	0,017031
1036,000000	0,013817
1035,000000	0,013316
1034,000000	0,015719
1033,000000	0,015537
1032,000000	0,012859
1031,000000	0,013552
1030,000000	0,017376
1029,000000	0,018212
1028,000000	0,015505
1027,000000	0,015060
1026,000000	0,016692
1025,000000	0,016210
1024,000000	0,014014
1023,000000	0,014583
1022,000000	0,017148
1021,000000	0,016582
1020,000000	0,014222
1019,000000	0,014042
1018,000000	0,015585
1017,000000	0,016299
1016,000000	0,014576
1015,000000	0,015502
1014,000000	0,018817
1013,000000	0,019047
1012,000000	0,016139
1011,000000	0,016257
1010,000000	0,019553
1009,000000	0,019367
1008,000000	0,015812
1007,000000	0,015426
1006,000000	0,017860
1005,000000	0,017611
1004,000000	0,014624
1003,000000	0,013815
1002,000000	0,016225
1001,000000	0,016423
1000,000000	0,013373
999,000000	0,013665
998,000000	0,017582
997,000000	0,018021
996,000000	0,015229
995,000000	0,015575
994,000000	0,018291
993,000000	0,017598
992,000000	0,013920
991,000000	0,012970
990,000000	0,015029
989,000000	0,015743
988,000000	0,013701
987,000000	0,014405
986,000000	0,017825
985,000000	0,017528
984,000000	0,013802
983,000000	0,012940
982,000000	0,015248
981,000000	0,016598
980,000000	0,015792
979,000000	0,016039
978,000000	0,018079
977,000000	0,018165
976,000000	0,015971
975,000000	0,014733
974,000000	0,015786
973,000000	0,015119
972,000000	0,012243
971,000000	0,011278
970,000000	0,012693
969,000000	0,014015
968,000000	0,013503
967,000000	0,013948
966,000000	0,015855
965,000000	0,015607
964,000000	0,013292
963,000000	0,013721
962,000000	0,016935
961,000000	0,017184
960,000000	0,014888
959,000000	0,015100
958,000000	0,017043
957,000000	0,016295
956,000000	0,013111
955,000000	0,012298
954,000000	0,014269
953,000000	0,014437
952,000000	0,011900
951,000000	0,012168
950,000000	0,014670
949,000000	0,015137
948,000000	0,013695
947,000000	0,013266
946,000000	0,014409
945,000000	0,014124
944,000000	0,012802
943,000000	0,013240
942,000000	0,015043
941,000000	0,015432
940,000000	0,012949
939,000000	0,011512
938,000000	0,011974
937,000000	0,012961
936,000000	0,013178
935,000000	0,014414
934,000000	0,016833
933,000000	0,016595
932,000000	0,013676
931,000000	0,012382
930,000000	0,012748
929,000000	0,011763
928,000000	0,009436
927,000000	0,009764
926,000000	0,012603
925,000000	0,012880
924,000000	0,010750
923,000000	0,011031
922,000000	0,013532
921,000000	0,013648
920,000000	0,011202
919,000000	0,010350
918,000000	0,011614
917,000000	0,012039
916,000000	0,010446
915,000000	0,010635
914,000000	0,012772
913,000000	0,013131
912,000000	0,011237
911,000000	0,011022
910,000000	0,012935
909,000000	0,013418
908,000000	0,012064
907,000000	0,011254
906,000000	0,012175
905,000000	0,012782
904,000000	0,011299
903,000000	0,010837
902,000000	0,012528
901,000000	0,013577
900,000000	0,013439
899,000000	0,014574
898,000000	0,015720
897,000000	0,015120
896,000000	0,012852
895,000000	0,011681
894,000000	0,012914
893,000000	0,012951
892,000000	0,010023
891,000000	0,009294
890,000000	0,010542
889,000000	0,010113
888,000000	0,008429
887,000000	0,008934
886,000000	0,011400
885,000000	0,012790
884,000000	0,011769
883,000000	0,011372
882,000000	0,011567
881,000000	0,011682
880,000000	0,010958
879,000000	0,010752
878,000000	0,011490
877,000000	0,011183
876,000000	0,010010
875,000000	0,010782
874,000000	0,012628
873,000000	0,013233
872,000000	0,011869
871,000000	0,011280
870,000000	0,011354
869,000000	0,010154
868,000000	0,008329
867,000000	0,008438
866,000000	0,010342
865,000000	0,011530
864,000000	0,010001
863,000000	0,009315
862,000000	0,010111
861,000000	0,009812
860,000000	0,008950
859,000000	0,009702
858,000000	0,010666
857,000000	0,010594
856,000000	0,009014
855,000000	0,009169
854,000000	0,010964
853,000000	0,011519
852,000000	0,010717
851,000000	0,010603
850,000000	0,011222
849,000000	0,010703
848,000000	0,010144
847,000000	0,010891
846,000000	0,011815
845,000000	0,012546
844,000000	0,011442
843,000000	0,011054
842,000000	0,011538
841,000000	0,010647
840,000000	0,009035
839,000000	0,009690
838,000000	0,011882
837,000000	0,012733
836,000000	0,011361
835,000000	0,010725
834,000000	0,011336
833,000000	0,011518
832,000000	0,010041
831,000000	0,009693
830,000000	0,010188
829,000000	0,009891
828,000000	0,009557
827,000000	0,010266
826,000000	0,011968
825,000000	0,012859
824,000000	0,012201
823,000000	0,011252
822,000000	0,010270
821,000000	0,009697
820,000000	0,008340
819,000000	0,008570
818,000000	0,010088
817,000000	0,010690
816,000000	0,010017
815,000000	0,010138
814,000000	0,010693
813,000000	0,010735
812,000000	0,010168
811,000000	0,010905
810,000000	0,011749
809,000000	0,011491
808,000000	0,009878
807,000000	0,009467
806,000000	0,010211
805,000000	0,010797
804,000000	0,010068
803,000000	0,009859
802,000000	0,010518
801,000000	0,009598
800,000000	0,008636
799,000000	0,008915
798,000000	0,009380
797,000000	0,008971
796,000000	0,007274
795,000000	0,007608
794,000000	0,009894
793,000000	0,011034
792,000000	0,010215
791,000000	0,010190
790,000000	0,010856
789,000000	0,010186
788,000000	0,009638
787,000000	0,010846
786,000000	0,011658
785,000000	0,011574
784,000000	0,010507
783,000000	0,010602
782,000000	0,013030
781,000000	0,014375
780,000000	0,012673
779,000000	0,011369
778,000000	0,011347
777,000000	0,010498
776,000000	0,008845
775,000000	0,008521
774,000000	0,009415
773,000000	0,009591
772,000000	0,009032
771,000000	0,009239
770,000000	0,009357
769,000000	0,009811
768,000000	0,009481
767,000000	0,009436
766,000000	0,009904
765,000000	0,009901
764,000000	0,008577
763,000000	0,008631
762,000000	0,010288
761,000000	0,011325
760,000000	0,011190
759,000000	0,010950
758,000000	0,010324
757,000000	0,010264
756,000000	0,010910
755,000000	0,011990
754,000000	0,012931
753,000000	0,012057
752,000000	0,009322
751,000000	0,008531
750,000000	0,009179
749,000000	0,008579
748,000000	0,007018
747,000000	0,007330
746,000000	0,008449
745,000000	0,009137
744,000000	0,009534
743,000000	0,009927
742,000000	0,010504
741,000000	0,010532
740,000000	0,009599
739,000000	0,009580
738,000000	0,009999
737,000000	0,010023
736,000000	0,008629
735,000000	0,007521
734,000000	0,006973
733,000000	0,007267
732,000000	0,007843
731,000000	0,008294
730,000000	0,009124
729,000000	0,009400
728,000000	0,008154
727,000000	0,008066
726,000000	0,007842
725,000000	0,008278
724,000000	0,008310
723,000000	0,008156
722,000000	0,008732
721,000000	0,009042
720,000000	0,008212
719,000000	0,007710
718,000000	0,008656
717,000000	0,009523
716,000000	0,010285
715,000000	0,011357
714,000000	0,010931
713,000000	0,009679
712,000000	0,008209
711,000000	0,007726
710,000000	0,007981
709,000000	0,008434
708,000000	0,008048
707,000000	0,008218
706,000000	0,008428
705,000000	0,009414
704,000000	0,010221
703,000000	0,010259
702,000000	0,009546
701,000000	0,009070
700,000000	0,008785
699,000000	0,008495
698,000000	0,008696
697,000000	0,009604
696,000000	0,010138
695,000000	0,010539
694,000000	0,010249
693,000000	0,009771
692,000000	0,009424
691,000000	0,009985
690,000000	0,010807
689,000000	0,010938
688,000000	0,010257
687,000000	0,008892
686,000000	0,007194
685,000000	0,005274
684,000000	0,003596
683,000000	0,004330
682,000000	0,006004
681,000000	0,008796
680,000000	0,010617
679,000000	0,010205
678,000000	0,008867
677,000000	0,007374
676,000000	0,006571
675,000000	0,007408
674,000000	0,007542
673,000000	0,008749
672,000000	0,008765
671,000000	0,007809
670,000000	0,006446
669,000000	0,005227
668,000000	0,004868
667,000000	0,004849
666,000000	0,004752
665,000000	0,005547
664,000000	0,006398
663,000000	0,007790
662,000000	0,007627
661,000000	0,007550
660,000000	0,007735
659,000000	0,006931
658,000000	0,006245
657,000000	0,006292
656,000000	0,006986
655,000000	0,007909
654,000000	0,007130
653,000000	0,007802
652,000000	0,008524
651,000000	0,008583
650,000000	0,007583
649,000000	0,005980
648,000000	0,004410
647,000000	0,003588
646,000000	0,003404
645,000000	0,004394
644,000000	0,005574
643,000000	0,006546
642,000000	0,006280
641,000000	0,006123
640,000000	0,006083
639,000000	0,006402
638,000000	0,007067
637,000000	0,007694
636,000000	0,008197
635,000000	0,008296
634,000000	0,006477
633,000000	0,005582
632,000000	0,004600
631,000000	0,004862
630,000000	0,005946
629,000000	0,006605
628,000000	0,004917
627,000000	0,004289
626,000000	0,005644
625,000000	0,006273
624,000000	0,005813
623,000000	0,005088
622,000000	0,003999
621,000000	0,004529
620,000000	0,005004
619,000000	0,005262
618,000000	0,004724
617,000000	0,005174
616,000000	0,005355
615,000000	0,005248
614,000000	0,004748
613,000000	0,004324
612,000000	0,004297
611,000000	0,004438
610,000000	0,005011
609,000000	0,005538
608,000000	0,005520
607,000000	0,005173
606,000000	0,003770
605,000000	0,003429
604,000000	0,002433
603,000000	0,003539
602,000000	0,002457
601,000000	0,001443
600,000000	0,003771
599,000000	0,004882
598,000000	0,004600
597,000000	0,004679
596,000000	0,004720
595,000000	0,004744
594,000000	0,004836
593,000000	0,005705
592,000000	0,006351
591,000000	0,006457
590,000000	0,005833
589,000000	0,005854
588,000000	0,005587
587,000000	0,004618
586,000000	0,003928
585,000000	0,003471
584,000000	0,004266
583,000000	0,005788
582,000000	0,006449
581,000000	0,007295
580,000000	0,007700
579,000000	0,006656
578,000000	0,005145
577,000000	0,005313
576,000000	0,004986
575,000000	0,004689
574,000000	0,004386
573,000000	0,005274
572,000000	0,006979
571,000000	0,006586
570,000000	0,004048
569,000000	0,002531
568,000000	0,004097
567,000000	0,004709
566,000000	0,003836
565,000000	0,004664
564,000000	0,005875
563,000000	0,005417
562,000000	0,004060
561,000000	0,004069
560,000000	0,005031
559,000000	0,005458
558,000000	0,004281
557,000000	0,003994
556,000000	0,005058
555,000000	0,004699
554,000000	0,003145
553,000000	0,003420
552,000000	0,004707
551,000000	0,004898
550,000000	0,004359
549,000000	0,005175
548,000000	0,007179
547,000000	0,007873
546,000000	0,006949
545,000000	0,006799
544,000000	0,006651
543,000000	0,006753
542,000000	0,006398
541,000000	0,006316
540,000000	0,006853
539,000000	0,006478
538,000000	0,004433
537,000000	0,004167
536,000000	0,005350
535,000000	0,005304
534,000000	0,003875
533,000000	0,004547
532,000000	0,006374
531,000000	0,007211
530,000000	0,007155
529,000000	0,006927
528,000000	0,006078
527,000000	0,004490
526,000000	0,002399
525,000000	0,002275
524,000000	0,003320
523,000000	0,004920
522,000000	0,004649
521,000000	0,005149
520,000000	0,006841
519,000000	0,007615
518,000000	0,005763
517,000000	0,004620
516,000000	0,005805
515,000000	0,005924
514,000000	0,004652
513,000000	0,004592
512,000000	0,006053
511,000000	0,007159
510,000000	0,006479
509,000000	0,006139
508,000000	0,006031
507,000000	0,004876
506,000000	0,004068
505,000000	0,004409
504,000000	0,004590
503,000000	0,004730
502,000000	0,004047
501,000000	0,004330
500,000000	0,004298
499,000000	0,004192
498,000000	0,003781
497,000000	0,004876
496,000000	0,006072
495,000000	0,005011
494,000000	0,002818
493,000000	0,002550
492,000000	0,003487
491,000000	0,003968
490,000000	0,003902
489,000000	0,005078
488,000000	0,005825
487,000000	0,005663
486,000000	0,006465
485,000000	0,007400
484,000000	0,008039
483,000000	0,008600
482,000000	0,008836
481,000000	0,009441
480,000000	0,009454
479,000000	0,008865
478,000000	0,008385
477,000000	0,008987
476,000000	0,010231
475,000000	0,009450
474,000000	0,006505
473,000000	0,005619
472,000000	0,007513
471,000000	0,007856
470,000000	0,005575
469,000000	0,005988
468,000000	0,008287
467,000000	0,007974
466,000000	0,006467
465,000000	0,006840
464,000000	0,008145
463,000000	0,006840
462,000000	0,004929
461,000000	0,004381
460,000000	0,003517
459,000000	0,003118
458,000000	0,004263
457,000000	0,003732
456,000000	0,001269
455,000000	0,001643
454,000000	0,004806
453,000000	0,005212
452,000000	0,003356
451,000000	0,002145
450,000000	0,003271
449,000000	0,002237
448,000000	0,001534
447,000000	0,004450
446,000000	0,003368
445,000000	0,003435
444,000000	0,006524
443,000000	0,008147
442,000000	0,008072
441,000000	0,009083
440,000000	0,011040
439,000000	0,010142
438,000000	0,006289
437,000000	0,003919
436,000000	0,005745
435,000000	0,006793
434,000000	0,005191
433,000000	0,005238
432,000000	0,007366
431,000000	0,006863
430,000000	0,003984
429,000000	0,004399
428,000000	0,007716
427,000000	0,009158
426,000000	0,007210
425,000000	0,005695
424,000000	0,006985
423,000000	0,008203
422,000000	0,007092
421,000000	0,006275
420,000000	0,007001
419,000000	0,006571
418,000000	0,005534
417,000000	0,005444
416,000000	0,004224
415,000000	0,004231
414,000000	0,004065
413,000000	0,004303
412,000000	0,004102
411,000000	0,004907
410,000000	0,003783
409,000000	0,003251
408,000000	0,005597
407,000000	0,007138
406,000000	0,006489
405,000000	0,007493
404,000000	0,010230
403,000000	0,010973
402,000000	0,009171
401,000000	0,008415
400,000000	0,007209
399,000000	0,005534
398,000000	0,004088
397,000000	0,003091
396,000000	0,003610
395,000000	0,005707
394,000000	0,004871
393,000000	0,004135
392,000000	0,005122
391,000000	0,005477
390,000000	0,005074
389,000000	0,005362
388,000000	0,006585
387,000000	0,007692
386,000000	0,007116
385,000000	0,006737
384,000000	0,006495
383,000000	0,005014
382,000000	0,003233
381,000000	0,004014
380,000000	0,006431
379,000000	0,006476
378,000000	0,003977
377,000000	0,002698
376,000000	0,003529
375,000000	0,003983
374,000000	0,002722
373,000000	0,003208
372,000000	0,004852
371,000000	0,004767
370,000000	0,002988
369,000000	0,003735
368,000000	0,004883
367,000000	0,005304
366,000000	0,004161
365,000000	0,004284
364,000000	0,007239
363,000000	0,008792
362,000000	0,007174
361,000000	0,006113
360,000000	0,007018
359,000000	0,008099
358,000000	0,008331
357,000000	0,006711
356,000000	0,004982
355,000000	0,005268
354,000000	0,002571
353,000000	0,001852
352,000000	0,002865
351,000000	0,003430
350,000000	0,002494
349,000000	0,002802
348,000000	0,006386
347,000000	0,009345
346,000000	0,008518
345,000000	0,007429
344,000000	0,008979
343,000000	0,010564
342,000000	0,008720
341,000000	0,007512
340,000000	0,009373
339,000000	0,012034
338,000000	0,010808
337,000000	0,009264
336,000000	0,010447
335,000000	0,012797
334,000000	0,012588
333,000000	0,011128
332,000000	0,010491
331,000000	0,009625
330,000000	0,006054
329,000000	0,002805
328,000000	0,002759
327,000000	0,004850
326,000000	0,002895
325,000000	0,002400
324,000000	0,001911
323,000000	0,003463
322,000000	0,002733
321,000000	0,004330
320,000000	0,003393
319,000000	0,005843
318,000000	0,006017
317,000000	0,003615
316,000000	0,007195
315,000000	0,016986
314,000000	0,017439
313,000000	0,009836
312,000000	0,004636
311,000000	0,003105
310,000000	0,001714
309,000000	0,002848
308,000000	0,002958
307,000000	0,002571
306,000000	0,003855
305,000000	0,005019
304,000000	0,005273
303,000000	0,004621
302,000000	0,004640
301,000000	0,005872
300,000000	0,004655
