PE IR       SUBTECH     SPECTRUM    ASCII       PEDS        4.00        
   -1
Al2O3 empty.ASC
25/06/17
10:22:41.00
25/06/17
10:22:41.00
Praktikum
Sample 020 By Praktikum date Dienstag, Juni 17 2025
300,000000
#HDR
-1
-1
#GR
cm-1
EGY
1.0
0.0
4000,000000
-1,000000
3701
8
60,938411
0,000723
#DATA
4000,000000	41,401493
3999,000000	41,408538
3998,000000	41,398869
3997,000000	41,380625
3996,000000	41,370311
3995,000000	41,376937
3994,000000	41,392804
3993,000000	41,405403
3992,000000	41,415969
3991,000000	41,440192
3990,000000	41,488488
3989,000000	41,551053
3988,000000	41,605833
3987,000000	41,637737
3986,000000	41,647102
3985,000000	41,644041
3984,000000	41,640880
3983,000000	41,648485
3982,000000	41,671797
3981,000000	41,703631
3980,000000	41,725731
3979,000000	41,720560
3978,000000	41,685878
3977,000000	41,638718
3976,000000	41,604667
3975,000000	41,601702
3974,000000	41,629743
3973,000000	41,673847
3972,000000	41,718385
3971,000000	41,759484
3970,000000	41,805286
3969,000000	41,864098
3968,000000	41,929742
3967,000000	41,977028
3966,000000	41,974967
3965,000000	41,912820
3964,000000	41,819514
3963,000000	41,751319
3962,000000	41,750034
3961,000000	41,810111
3960,000000	41,889319
3959,000000	41,950286
3958,000000	41,987760
3957,000000	42,016111
3956,000000	42,038853
3955,000000	42,035004
3954,000000	41,969595
3953,000000	41,816907
3952,000000	41,586653
3951,000000	41,342414
3950,000000	41,187152
3949,000000	41,200229
3948,000000	41,357354
3947,000000	41,514954
3946,000000	41,516612
3945,000000	41,344605
3944,000000	41,165066
3943,000000	41,189299
3942,000000	41,473275
3941,000000	41,875055
3940,000000	42,207099
3939,000000	42,389160
3938,000000	42,433476
3937,000000	42,329845
3936,000000	42,025459
3935,000000	41,538057
3934,000000	41,032437
3933,000000	40,741125
3932,000000	40,798908
3931,000000	41,152134
3930,000000	41,593110
3929,000000	41,873805
3928,000000	41,854234
3927,000000	41,603293
3926,000000	41,348837
3925,000000	41,288204
3924,000000	41,412905
3923,000000	41,530303
3922,000000	41,448262
3921,000000	41,129311
3920,000000	40,704704
3919,000000	40,391940
3918,000000	40,397586
3917,000000	40,807618
3916,000000	41,511129
3915,000000	42,247026
3914,000000	42,774577
3913,000000	43,031564
3912,000000	43,113841
3911,000000	43,109338
3910,000000	42,963861
3909,000000	42,499290
3908,000000	41,561136
3907,000000	40,189954
3906,000000	38,684088
3905,000000	37,463426
3904,000000	36,800595
3903,000000	36,673439
3902,000000	36,902038
3901,000000	37,407691
3900,000000	38,274659
3899,000000	39,524807
3898,000000	40,911383
3897,000000	41,984234
3896,000000	42,349332
3895,000000	41,889736
3894,000000	40,864203
3893,000000	39,866915
3892,000000	39,527239
3891,000000	39,993386
3890,000000	40,671208
3889,000000	40,716097
3888,000000	39,887201
3887,000000	38,857441
3886,000000	38,511843
3885,000000	39,014263
3884,000000	39,703574
3883,000000	39,895726
3882,000000	39,639169
3881,000000	39,594642
3880,000000	40,231178
3879,000000	41,269720
3878,000000	41,950897
3877,000000	41,810598
3876,000000	41,095377
3875,000000	40,340501
3874,000000	39,689542
3873,000000	38,848712
3872,000000	37,750640
3871,000000	36,956673
3870,000000	37,106702
3869,000000	38,081445
3868,000000	39,028641
3867,000000	39,267398
3866,000000	38,953143
3865,000000	38,762531
3864,000000	39,125609
3863,000000	39,952185
3862,000000	40,916090
3861,000000	41,744530
3860,000000	42,169024
3859,000000	41,781747
3858,000000	40,140540
3857,000000	37,161377
3856,000000	33,525543
3855,000000	30,630169
3854,000000	29,851281
3853,000000	31,591345
3852,000000	34,989076
3851,000000	38,587699
3850,000000	41,316808
3849,000000	42,866223
3848,000000	43,390470
3847,000000	43,135540
3846,000000	42,386553
3845,000000	41,487350
3844,000000	40,686646
3843,000000	39,955170
3842,000000	39,056420
3841,000000	37,858124
3840,000000	36,595341
3839,000000	35,797550
3838,000000	35,911141
3837,000000	36,909468
3836,000000	38,274736
3835,000000	39,407449
3834,000000	40,086535
3833,000000	40,540788
3832,000000	41,089210
3831,000000	41,768874
3830,000000	42,318684
3829,000000	42,517748
3828,000000	42,456303
3827,000000	42,372177
3826,000000	42,202340
3825,000000	41,470862
3824,000000	39,871874
3823,000000	37,942283
3822,000000	36,821090
3821,000000	37,119288
3820,000000	38,167374
3819,000000	38,727221
3818,000000	38,385765
3817,000000	37,995389
3816,000000	38,644885
3815,000000	40,460553
3814,000000	42,594949
3813,000000	44,110308
3812,000000	44,597265
3811,000000	44,050120
3810,000000	42,659784
3809,000000	40,947233
3808,000000	39,767125
3807,000000	39,683537
3806,000000	40,261453
3805,000000	40,345259
3804,000000	39,288359
3803,000000	37,784767
3802,000000	37,203761
3801,000000	38,134936
3800,000000	39,850662
3799,000000	41,208191
3798,000000	41,835071
3797,000000	42,217168
3796,000000	42,890761
3795,000000	43,845791
3794,000000	44,708195
3793,000000	45,218610
3792,000000	45,404154
3791,000000	45,423295
3790,000000	45,377218
3789,000000	45,256558
3788,000000	45,014721
3787,000000	44,697798
3786,000000	44,469676
3785,000000	44,450608
3784,000000	44,514640
3783,000000	44,357329
3782,000000	43,838891
3781,000000	43,222982
3780,000000	42,992622
3779,000000	43,401054
3778,000000	44,244923
3777,000000	45,076097
3776,000000	45,566705
3775,000000	45,614262
3774,000000	45,181733
3773,000000	44,254670
3772,000000	43,061011
3771,000000	42,137724
3770,000000	41,918518
3769,000000	42,279545
3768,000000	42,712865
3767,000000	42,971391
3766,000000	43,280125
3765,000000	43,825041
3764,000000	44,295350
3763,000000	44,196853
3762,000000	43,465976
3761,000000	42,563062
3760,000000	42,019474
3759,000000	42,046666
3758,000000	42,460445
3757,000000	42,740227
3756,000000	42,228343
3755,000000	40,576980
3754,000000	38,101688
3753,000000	35,628575
3752,000000	34,006923
3751,000000	33,737719
3750,000000	34,737328
3749,000000	36,147340
3748,000000	36,647750
3747,000000	35,565727
3746,000000	33,811175
3745,000000	33,260632
3744,000000	34,925760
3743,000000	37,979090
3742,000000	40,663121
3741,000000	41,799581
3740,000000	41,292126
3739,000000	39,655339
3738,000000	37,613911
3737,000000	35,973151
3736,000000	35,296395
3735,000000	35,565628
3734,000000	36,402269
3733,000000	37,603360
3732,000000	39,167498
3731,000000	40,826615
3730,000000	41,948754
3729,000000	42,133755
3728,000000	41,670002
3727,000000	41,205823
3726,000000	41,100895
3725,000000	41,263829
3724,000000	41,511236
3723,000000	41,844593
3722,000000	42,350191
3721,000000	43,012474
3720,000000	43,722573
3719,000000	44,387525
3718,000000	44,898153
3717,000000	44,990462
3716,000000	44,293760
3715,000000	42,684265
3714,000000	40,602101
3713,000000	38,900650
3712,000000	38,287670
3711,000000	38,881736
3710,000000	40,288649
3709,000000	41,971163
3708,000000	43,485238
3707,000000	44,503278
3706,000000	44,806028
3705,000000	44,394434
3704,000000	43,581479
3703,000000	42,910096
3702,000000	42,860159
3701,000000	43,499535
3700,000000	44,429197
3699,000000	45,143500
3698,000000	45,459577
3697,000000	45,517414
3696,000000	45,397441
3695,000000	44,918716
3694,000000	43,873105
3693,000000	42,296514
3692,000000	40,459837
3691,000000	38,791840
3690,000000	37,888478
3689,000000	38,327527
3688,000000	40,158889
3687,000000	42,650653
3686,000000	44,794041
3685,000000	46,042035
3684,000000	46,462619
3683,000000	46,334857
3682,000000	45,848028
3681,000000	45,065897
3680,000000	43,860296
3679,000000	41,936867
3678,000000	39,363866
3677,000000	37,081271
3676,000000	36,388184
3675,000000	37,557113
3674,000000	39,296232
3673,000000	40,004225
3672,000000	39,429485
3671,000000	38,812904
3670,000000	39,449300
3669,000000	41,445619
3668,000000	43,900208
3667,000000	45,886141
3666,000000	47,054927
3665,000000	47,545243
3664,000000	47,652174
3663,000000	47,629724
3662,000000	47,569892
3661,000000	47,322830
3660,000000	46,603940
3659,000000	45,340823
3658,000000	43,981216
3657,000000	43,280909
3656,000000	43,571971
3655,000000	44,231505
3654,000000	44,059933
3653,000000	42,381975
3652,000000	39,712024
3651,000000	37,326308
3650,000000	36,285820
3649,000000	36,884286
3648,000000	38,796566
3647,000000	41,389492
3646,000000	43,902999
3645,000000	45,704760
3644,000000	46,617502
3643,000000	46,930643
3642,000000	47,024327
3641,000000	47,055069
3640,000000	47,021942
3639,000000	46,940037
3638,000000	46,796521
3637,000000	46,492835
3636,000000	46,009751
3635,000000	45,489978
3634,000000	44,913117
3633,000000	43,815486
3632,000000	41,736657
3631,000000	39,088356
3630,000000	37,232921
3629,000000	37,394651
3628,000000	39,517759
3627,000000	42,372209
3626,000000	44,656399
3625,000000	45,815197
3624,000000	45,899964
3623,000000	45,112513
3622,000000	43,737865
3621,000000	42,326350
3620,000000	41,568737
3619,000000	41,823336
3618,000000	42,790380
3617,000000	43,741298
3616,000000	44,118577
3615,000000	43,932581
3614,000000	43,590229
3613,000000	43,383909
3612,000000	43,229320
3611,000000	42,935393
3610,000000	42,625576
3609,000000	42,721140
3608,000000	43,479749
3607,000000	44,678251
3606,000000	45,795385
3605,000000	46,434922
3604,000000	46,530024
3603,000000	46,263939
3602,000000	45,913750
3601,000000	45,705149
3600,000000	45,678216
3599,000000	45,673515
3598,000000	45,513828
3597,000000	45,215949
3596,000000	45,000928
3595,000000	45,089408
3594,000000	45,481980
3593,000000	45,884167
3592,000000	45,841885
3591,000000	45,063207
3590,000000	43,755940
3589,000000	42,616940
3588,000000	42,359412
3587,000000	43,168301
3586,000000	44,612215
3585,000000	46,041953
3584,000000	47,030287
3583,000000	47,510231
3582,000000	47,646400
3581,000000	47,652040
3580,000000	47,664557
3579,000000	47,711363
3578,000000	47,760866
3577,000000	47,800696
3576,000000	47,855805
3575,000000	47,943203
3574,000000	48,025749
3573,000000	47,980257
3572,000000	47,589424
3571,000000	46,651400
3570,000000	45,228332
3569,000000	43,798876
3568,000000	43,027064
3567,000000	43,279805
3566,000000	44,349392
3565,000000	45,657769
3564,000000	46,694129
3563,000000	47,287989
3562,000000	47,560214
3561,000000	47,721557
3560,000000	47,907374
3559,000000	48,127819
3558,000000	48,307737
3557,000000	48,354609
3556,000000	48,216049
3555,000000	47,924426
3554,000000	47,618755
3553,000000	47,481135
3552,000000	47,575196
3551,000000	47,741119
3550,000000	47,711617
3549,000000	47,374743
3548,000000	46,898388
3547,000000	46,585216
3546,000000	46,627372
3545,000000	47,001798
3544,000000	47,541517
3543,000000	48,059835
3542,000000	48,431179
3541,000000	48,610107
3540,000000	48,611090
3539,000000	48,486792
3538,000000	48,329159
3537,000000	48,253225
3536,000000	48,322515
3535,000000	48,479471
3534,000000	48,582495
3533,000000	48,529088
3532,000000	48,323967
3531,000000	48,040027
3530,000000	47,758531
3529,000000	47,552370
3528,000000	47,463690
3527,000000	47,463483
3526,000000	47,478222
3525,000000	47,489592
3524,000000	47,572143
3523,000000	47,789907
3522,000000	48,090159
3521,000000	48,347380
3520,000000	48,496592
3519,000000	48,572498
3518,000000	48,630706
3517,000000	48,681240
3516,000000	48,705088
3515,000000	48,687312
3514,000000	48,612609
3513,000000	48,463571
3512,000000	48,258808
3511,000000	48,082397
3510,000000	48,036679
3509,000000	48,142796
3508,000000	48,290053
3507,000000	48,310620
3506,000000	48,129016
3505,000000	47,845792
3504,000000	47,662039
3503,000000	47,710768
3502,000000	47,958557
3501,000000	48,253747
3500,000000	48,454378
3499,000000	48,512462
3498,000000	48,476185
3497,000000	48,435837
3496,000000	48,456279
3495,000000	48,537082
3494,000000	48,627088
3493,000000	48,675654
3492,000000	48,663269
3491,000000	48,595891
3490,000000	48,498020
3489,000000	48,417758
3488,000000	48,403756
3487,000000	48,451094
3486,000000	48,486775
3485,000000	48,437850
3484,000000	48,312446
3483,000000	48,199378
3482,000000	48,187839
3481,000000	48,297104
3480,000000	48,470501
3479,000000	48,620523
3478,000000	48,688208
3477,000000	48,679374
3476,000000	48,650683
3475,000000	48,653655
3474,000000	48,693758
3473,000000	48,742598
3472,000000	48,774215
3471,000000	48,779098
3470,000000	48,758411
3469,000000	48,725522
3468,000000	48,705667
3467,000000	48,713638
3466,000000	48,732842
3465,000000	48,732854
3464,000000	48,709178
3463,000000	48,692414
3462,000000	48,714589
3461,000000	48,777163
3460,000000	48,853925
3459,000000	48,917208
3458,000000	48,957837
3457,000000	48,985004
3456,000000	49,011245
3455,000000	49,039147
3454,000000	49,064180
3453,000000	49,080379
3452,000000	49,068808
3451,000000	48,987354
3450,000000	48,807333
3449,000000	48,577868
3448,000000	48,423946
3447,000000	48,440523
3446,000000	48,593765
3445,000000	48,760734
3444,000000	48,861504
3443,000000	48,920283
3442,000000	48,995049
3441,000000	49,091662
3440,000000	49,172605
3439,000000	49,218689
3438,000000	49,246433
3437,000000	49,274627
3436,000000	49,303859
3435,000000	49,328890
3434,000000	49,350245
3433,000000	49,370359
3432,000000	49,391973
3431,000000	49,422279
3430,000000	49,467441
3429,000000	49,522467
3428,000000	49,575244
3427,000000	49,617645
3426,000000	49,641551
3425,000000	49,629027
3424,000000	49,566170
3423,000000	49,474280
3422,000000	49,412085
3421,000000	49,433606
3420,000000	49,543783
3419,000000	49,697312
3418,000000	49,835741
3417,000000	49,924439
3416,000000	49,964172
3415,000000	49,978724
3414,000000	49,992096
3413,000000	50,012598
3412,000000	50,035413
3411,000000	50,056043
3410,000000	50,076119
3409,000000	50,097474
3408,000000	50,117492
3407,000000	50,131809
3406,000000	50,137687
3405,000000	50,135229
3404,000000	50,130417
3403,000000	50,134858
3402,000000	50,153430
3401,000000	50,173633
3400,000000	50,179036
3399,000000	50,175020
3398,000000	50,186364
3397,000000	50,221737
3396,000000	50,255690
3395,000000	50,261144
3394,000000	50,251072
3393,000000	50,269966
3392,000000	50,343829
3391,000000	50,451451
3390,000000	50,546621
3389,000000	50,597592
3388,000000	50,603464
3387,000000	50,586398
3386,000000	50,576145
3385,000000	50,594350
3384,000000	50,642274
3383,000000	50,702164
3382,000000	50,753491
3381,000000	50,788527
3380,000000	50,812920
3379,000000	50,835089
3378,000000	50,858410
3377,000000	50,881950
3376,000000	50,904758
3375,000000	50,927013
3374,000000	50,947189
3373,000000	50,960131
3372,000000	50,960136
3371,000000	50,945944
3370,000000	50,921821
3369,000000	50,894951
3368,000000	50,874755
3367,000000	50,872621
3366,000000	50,895230
3365,000000	50,935682
3364,000000	50,977518
3363,000000	51,011113
3362,000000	51,041553
3361,000000	51,076458
3360,000000	51,111520
3359,000000	51,135362
3358,000000	51,146361
3357,000000	51,157102
3356,000000	51,180867
3355,000000	51,218251
3354,000000	51,258192
3353,000000	51,289466
3352,000000	51,310362
3351,000000	51,328499
3350,000000	51,351831
3349,000000	51,380475
3348,000000	51,408381
3347,000000	51,431273
3346,000000	51,449209
3345,000000	51,462683
3344,000000	51,471894
3343,000000	51,479951
3342,000000	51,489849
3341,000000	51,496319
3340,000000	51,488626
3339,000000	51,466252
3338,000000	51,446229
3337,000000	51,449497
3336,000000	51,482865
3335,000000	51,536850
3334,000000	51,595744
3333,000000	51,645656
3332,000000	51,678214
3331,000000	51,693144
3330,000000	51,696299
3329,000000	51,693445
3328,000000	51,688837
3327,000000	51,689801
3326,000000	51,705331
3325,000000	51,736761
3324,000000	51,775535
3323,000000	51,812908
3322,000000	51,846018
3321,000000	51,873187
3320,000000	51,891815
3319,000000	51,904399
3318,000000	51,917492
3317,000000	51,930117
3316,000000	51,933075
3315,000000	51,924886
3314,000000	51,917453
3313,000000	51,918263
3312,000000	51,918312
3311,000000	51,909360
3310,000000	51,904118
3309,000000	51,924293
3308,000000	51,973236
3307,000000	52,032656
3306,000000	52,084038
3305,000000	52,122934
3304,000000	52,153381
3303,000000	52,179012
3302,000000	52,200431
3301,000000	52,214751
3300,000000	52,218849
3299,000000	52,217522
3298,000000	52,223295
3297,000000	52,240872
3296,000000	52,257155
3295,000000	52,256754
3294,000000	52,243988
3293,000000	52,239827
3292,000000	52,258634
3291,000000	52,296624
3290,000000	52,342137
3289,000000	52,386390
3288,000000	52,423223
3287,000000	52,447673
3286,000000	52,459478
3285,000000	52,464549
3284,000000	52,470775
3283,000000	52,483287
3282,000000	52,501587
3281,000000	52,518282
3280,000000	52,522805
3279,000000	52,510527
3278,000000	52,487256
3277,000000	52,464074
3276,000000	52,451427
3275,000000	52,458568
3274,000000	52,491249
3273,000000	52,545111
3272,000000	52,606298
3271,000000	52,662474
3270,000000	52,709253
3269,000000	52,744575
3268,000000	52,765262
3267,000000	52,774248
3266,000000	52,782918
3265,000000	52,799233
3264,000000	52,818997
3263,000000	52,834282
3262,000000	52,844544
3261,000000	52,853565
3260,000000	52,861427
3259,000000	52,865471
3258,000000	52,864699
3257,000000	52,859878
3256,000000	52,855682
3255,000000	52,865009
3254,000000	52,900909
3253,000000	52,958598
3252,000000	53,015231
3251,000000	53,052640
3250,000000	53,069268
3249,000000	53,066304
3248,000000	53,039177
3247,000000	52,996332
3246,000000	52,970415
3245,000000	52,990858
3244,000000	53,050124
3243,000000	53,113086
3242,000000	53,155851
3241,000000	53,180115
3240,000000	53,195628
3239,000000	53,206182
3238,000000	53,214334
3237,000000	53,224558
3236,000000	53,236879
3235,000000	53,246924
3234,000000	53,254852
3233,000000	53,266216
3232,000000	53,282681
3231,000000	53,299776
3230,000000	53,315629
3229,000000	53,335284
3228,000000	53,363945
3227,000000	53,400504
3226,000000	53,438252
3225,000000	53,468105
3224,000000	53,481106
3223,000000	53,473386
3222,000000	53,452123
3221,000000	53,435202
3220,000000	53,440916
3219,000000	53,472525
3218,000000	53,511043
3217,000000	53,530389
3216,000000	53,525820
3215,000000	53,521998
3214,000000	53,543116
3213,000000	53,580970
3212,000000	53,608367
3211,000000	53,619638
3210,000000	53,638541
3209,000000	53,681559
3208,000000	53,734848
3207,000000	53,776043
3206,000000	53,802392
3205,000000	53,824254
3204,000000	53,844478
3203,000000	53,857497
3202,000000	53,859416
3201,000000	53,848604
3200,000000	53,826285
3199,000000	53,806352
3198,000000	53,812912
3197,000000	53,855860
3196,000000	53,916801
3195,000000	53,969760
3194,000000	54,007116
3193,000000	54,035664
3192,000000	54,059031
3191,000000	54,076476
3190,000000	54,090450
3189,000000	54,101749
3188,000000	54,104338
3187,000000	54,097329
3186,000000	54,095376
3185,000000	54,114716
3184,000000	54,152299
3183,000000	54,188207
3182,000000	54,203987
3181,000000	54,194088
3180,000000	54,168335
3179,000000	54,151853
3178,000000	54,170887
3177,000000	54,226650
3176,000000	54,290928
3175,000000	54,336315
3174,000000	54,362204
3173,000000	54,382044
3172,000000	54,399235
3171,000000	54,409821
3170,000000	54,418492
3169,000000	54,434435
3168,000000	54,456629
3167,000000	54,477622
3166,000000	54,496955
3165,000000	54,518560
3164,000000	54,540007
3163,000000	54,556712
3162,000000	54,571904
3161,000000	54,591015
3160,000000	54,611326
3159,000000	54,627861
3158,000000	54,643618
3157,000000	54,662776
3156,000000	54,679924
3155,000000	54,688132
3154,000000	54,692482
3153,000000	54,704023
3152,000000	54,724626
3151,000000	54,748513
3150,000000	54,773560
3149,000000	54,800437
3148,000000	54,825058
3147,000000	54,842740
3146,000000	54,856082
3145,000000	54,869966
3144,000000	54,883354
3143,000000	54,894086
3142,000000	54,906140
3141,000000	54,923843
3140,000000	54,944947
3139,000000	54,966401
3138,000000	54,987979
3137,000000	55,002726
3136,000000	54,995849
3135,000000	54,967387
3134,000000	54,946043
3133,000000	54,963485
3132,000000	55,017489
3131,000000	55,074345
3130,000000	55,105160
3129,000000	55,109251
3128,000000	55,103555
3127,000000	55,101373
3126,000000	55,102945
3125,000000	55,100487
3124,000000	55,091353
3123,000000	55,086109
3122,000000	55,097800
3121,000000	55,122074
3120,000000	55,138800
3119,000000	55,138178
3118,000000	55,134186
3117,000000	55,146208
3116,000000	55,178408
3115,000000	55,224466
3114,000000	55,278447
3113,000000	55,331023
3112,000000	55,367284
3111,000000	55,382544
3110,000000	55,391463
3109,000000	55,410215
3108,000000	55,437319
3107,000000	55,461028
3106,000000	55,474624
3105,000000	55,473973
3104,000000	55,453948
3103,000000	55,422687
3102,000000	55,408616
3101,000000	55,433533
3100,000000	55,483693
3099,000000	55,523356
3098,000000	55,535728
3097,000000	55,537637
3096,000000	55,556273
3095,000000	55,602981
3094,000000	55,667641
3093,000000	55,728901
3092,000000	55,769627
3091,000000	55,789220
3090,000000	55,799628
3089,000000	55,808899
3088,000000	55,815541
3087,000000	55,820075
3086,000000	55,828988
3085,000000	55,840866
3084,000000	55,842243
3083,000000	55,826666
3082,000000	55,807076
3081,000000	55,800428
3080,000000	55,811150
3079,000000	55,837979
3078,000000	55,882899
3077,000000	55,940823
3076,000000	55,992875
3075,000000	56,024790
3074,000000	56,042643
3073,000000	56,057915
3072,000000	56,066384
3071,000000	56,055035
3070,000000	56,021572
3069,000000	55,975034
3068,000000	55,926256
3067,000000	55,889881
3066,000000	55,885507
3065,000000	55,921199
3064,000000	55,980909
3063,000000	56,039668
3062,000000	56,084453
3061,000000	56,110959
3060,000000	56,112630
3059,000000	56,090714
3058,000000	56,067571
3057,000000	56,072331
3056,000000	56,113336
3055,000000	56,173831
3054,000000	56,229810
3053,000000	56,263450
3052,000000	56,267674
3051,000000	56,252647
3050,000000	56,243404
3049,000000	56,258775
3048,000000	56,293925
3047,000000	56,330343
3046,000000	56,357242
3045,000000	56,374918
3044,000000	56,385521
3043,000000	56,392012
3042,000000	56,401293
3041,000000	56,416865
3040,000000	56,431164
3039,000000	56,433008
3038,000000	56,419833
3037,000000	56,395943
3036,000000	56,363822
3035,000000	56,324289
3034,000000	56,282806
3033,000000	56,251472
3032,000000	56,245775
3031,000000	56,276383
3030,000000	56,334334
3029,000000	56,386438
3028,000000	56,400392
3027,000000	56,377260
3026,000000	56,346508
3025,000000	56,327442
3024,000000	56,312754
3023,000000	56,292125
3022,000000	56,269850
3021,000000	56,249499
3020,000000	56,222559
3019,000000	56,186876
3018,000000	56,160532
3017,000000	56,161372
3016,000000	56,185896
3015,000000	56,221658
3014,000000	56,268740
3013,000000	56,334826
3012,000000	56,419563
3011,000000	56,516536
3010,000000	56,619384
3009,000000	56,715043
3008,000000	56,782677
3007,000000	56,814459
3006,000000	56,828423
3005,000000	56,848800
3004,000000	56,881618
3003,000000	56,918214
3002,000000	56,951787
3001,000000	56,978500
3000,000000	56,993466
2999,000000	56,997017
2998,000000	56,997105
2997,000000	56,997110
2996,000000	56,991752
2995,000000	56,982635
2994,000000	56,983867
2993,000000	57,001532
2992,000000	57,020829
2991,000000	57,025396
2990,000000	57,018259
2989,000000	57,012150
2988,000000	57,010711
2987,000000	57,010562
2986,000000	57,010743
2985,000000	57,008217
2984,000000	56,994026
2983,000000	56,964933
2982,000000	56,930167
2981,000000	56,898217
2980,000000	56,866641
2979,000000	56,831751
2978,000000	56,795186
2977,000000	56,754035
2976,000000	56,698533
2975,000000	56,628644
2974,000000	56,558190
2973,000000	56,492747
2972,000000	56,418700
2971,000000	56,324290
2970,000000	56,216864
2969,000000	56,108651
2968,000000	56,001148
2967,000000	55,895390
2966,000000	55,801857
2965,000000	55,726972
2964,000000	55,662952
2963,000000	55,603406
2962,000000	55,555344
2961,000000	55,524400
2960,000000	55,502725
2959,000000	55,483181
2958,000000	55,471213
2957,000000	55,470082
2956,000000	55,469552
2955,000000	55,462259
2954,000000	55,456481
2953,000000	55,459419
2952,000000	55,461481
2951,000000	55,451000
2950,000000	55,430496
2949,000000	55,405479
2948,000000	55,370673
2947,000000	55,320850
2946,000000	55,262201
2945,000000	55,199550
2944,000000	55,125724
2943,000000	55,035392
2942,000000	54,936346
2941,000000	54,835100
2940,000000	54,726257
2939,000000	54,608468
2938,000000	54,495586
2937,000000	54,398562
2936,000000	54,310670
2935,000000	54,223498
2934,000000	54,142264
2933,000000	54,071480
2932,000000	54,001570
2931,000000	53,925077
2930,000000	53,852310
2929,000000	53,796599
2928,000000	53,758021
2927,000000	53,736263
2926,000000	53,744161
2925,000000	53,793646
2924,000000	53,880588
2923,000000	53,997552
2922,000000	54,147127
2921,000000	54,328095
2920,000000	54,523745
2919,000000	54,718485
2918,000000	54,913666
2917,000000	55,112217
2916,000000	55,303013
2915,000000	55,475300
2914,000000	55,634309
2913,000000	55,787383
2912,000000	55,928093
2911,000000	56,049249
2910,000000	56,157796
2909,000000	56,261891
2908,000000	56,356608
2907,000000	56,437299
2906,000000	56,513314
2905,000000	56,593387
2904,000000	56,670858
2903,000000	56,737979
2902,000000	56,801225
2901,000000	56,867818
2900,000000	56,930752
2899,000000	56,982504
2898,000000	57,030220
2897,000000	57,082489
2896,000000	57,134129
2895,000000	57,178408
2894,000000	57,221079
2893,000000	57,267934
2892,000000	57,311799
2891,000000	57,345906
2890,000000	57,376684
2889,000000	57,409570
2888,000000	57,436273
2887,000000	57,449885
2886,000000	57,458411
2885,000000	57,469274
2884,000000	57,474961
2883,000000	57,467982
2882,000000	57,455212
2881,000000	57,443107
2880,000000	57,423826
2879,000000	57,390515
2878,000000	57,351216
2877,000000	57,312799
2876,000000	57,266573
2875,000000	57,205056
2874,000000	57,137685
2873,000000	57,073910
2872,000000	57,005401
2871,000000	56,920547
2870,000000	56,822452
2869,000000	56,716964
2868,000000	56,598194
2867,000000	56,462047
2866,000000	56,321202
2865,000000	56,190613
2864,000000	56,072157
2863,000000	55,967353
2862,000000	55,890512
2861,000000	55,853362
2860,000000	55,849691
2859,000000	55,869344
2858,000000	55,913741
2857,000000	55,983479
2856,000000	56,066639
2855,000000	56,154583
2854,000000	56,255129
2853,000000	56,375315
2852,000000	56,506187
2851,000000	56,638494
2850,000000	56,778240
2849,000000	56,931264
2848,000000	57,087735
2847,000000	57,236941
2846,000000	57,382175
2845,000000	57,526597
2844,000000	57,660138
2843,000000	57,775209
2842,000000	57,880353
2841,000000	57,983554
2840,000000	58,077860
2839,000000	58,157704
2838,000000	58,232608
2837,000000	58,309871
2836,000000	58,380466
2835,000000	58,437359
2834,000000	58,490516
2833,000000	58,548431
2832,000000	58,602003
2831,000000	58,643028
2830,000000	58,681191
2829,000000	58,726114
2828,000000	58,769565
2827,000000	58,802278
2826,000000	58,831997
2825,000000	58,867548
2824,000000	58,901657
2823,000000	58,926512
2822,000000	58,950080
2821,000000	58,980288
2820,000000	59,008794
2819,000000	59,027361
2818,000000	59,044062
2817,000000	59,066969
2816,000000	59,087974
2815,000000	59,099329
2814,000000	59,109735
2813,000000	59,127343
2812,000000	59,143791
2811,000000	59,151254
2810,000000	59,158756
2809,000000	59,174424
2808,000000	59,188750
2807,000000	59,192647
2806,000000	59,194964
2805,000000	59,205124
2804,000000	59,215169
2803,000000	59,216322
2802,000000	59,216484
2801,000000	59,223838
2800,000000	59,230376
2799,000000	59,229076
2798,000000	59,230179
2797,000000	59,242904
2796,000000	59,257644
2795,000000	59,264253
2794,000000	59,270730
2793,000000	59,286159
2792,000000	59,302878
2791,000000	59,313377
2790,000000	59,327603
2789,000000	59,354868
2788,000000	59,385225
2787,000000	59,407470
2786,000000	59,428678
2785,000000	59,457782
2784,000000	59,486979
2783,000000	59,507471
2782,000000	59,527053
2781,000000	59,553565
2780,000000	59,577722
2779,000000	59,590697
2778,000000	59,601660
2777,000000	59,619959
2776,000000	59,637260
2775,000000	59,645566
2774,000000	59,654987
2773,000000	59,674881
2772,000000	59,694758
2771,000000	59,703346
2770,000000	59,709218
2769,000000	59,723085
2768,000000	59,737255
2767,000000	59,742125
2766,000000	59,746095
2765,000000	59,759149
2764,000000	59,773285
2763,000000	59,778679
2762,000000	59,782924
2761,000000	59,794948
2760,000000	59,806342
2759,000000	59,808157
2758,000000	59,809630
2757,000000	59,820939
2756,000000	59,833758
2755,000000	59,838157
2754,000000	59,841893
2753,000000	59,854017
2752,000000	59,865898
2751,000000	59,867935
2750,000000	59,868690
2749,000000	59,878259
2748,000000	59,889034
2747,000000	59,891909
2746,000000	59,894896
2745,000000	59,906626
2744,000000	59,918222
2743,000000	59,920557
2742,000000	59,922593
2741,000000	59,933595
2740,000000	59,944519
2739,000000	59,946005
2738,000000	59,947603
2737,000000	59,959571
2736,000000	59,973040
2735,000000	59,977544
2734,000000	59,981051
2733,000000	59,993176
2732,000000	60,005611
2731,000000	60,008784
2730,000000	60,010885
2729,000000	60,021149
2728,000000	60,031436
2727,000000	60,033295
2726,000000	60,035851
2725,000000	60,047531
2724,000000	60,058271
2723,000000	60,059066
2722,000000	60,061049
2721,000000	60,075155
2720,000000	60,091137
2719,000000	60,096856
2718,000000	60,100123
2717,000000	60,111253
2716,000000	60,122084
2715,000000	60,123315
2714,000000	60,124374
2713,000000	60,135422
2712,000000	60,146970
2711,000000	60,148363
2710,000000	60,148604
2709,000000	60,158410
2708,000000	60,169131
2707,000000	60,170391
2706,000000	60,171028
2705,000000	60,181670
2704,000000	60,194018
2703,000000	60,197974
2702,000000	60,201961
2701,000000	60,215597
2700,000000	60,229991
2699,000000	60,235635
2698,000000	60,242182
2697,000000	60,259607
2696,000000	60,277656
2695,000000	60,284720
2694,000000	60,289520
2693,000000	60,303199
2692,000000	60,317877
2691,000000	60,323510
2690,000000	60,328407
2689,000000	60,341863
2688,000000	60,354518
2687,000000	60,356649
2686,000000	60,358024
2685,000000	60,368936
2684,000000	60,379732
2683,000000	60,380166
2682,000000	60,380225
2681,000000	60,390807
2680,000000	60,402264
2679,000000	60,403505
2678,000000	60,403720
2677,000000	60,413673
2676,000000	60,424126
2675,000000	60,424524
2674,000000	60,424515
2673,000000	60,434953
2672,000000	60,445969
2671,000000	60,445976
2670,000000	60,444319
2669,000000	60,452603
2668,000000	60,462065
2667,000000	60,461462
2666,000000	60,459382
2665,000000	60,466754
2664,000000	60,475330
2663,000000	60,475246
2662,000000	60,475796
2661,000000	60,486783
2660,000000	60,497592
2659,000000	60,497038
2658,000000	60,495427
2657,000000	60,504953
2656,000000	60,516523
2655,000000	60,518486
2654,000000	60,519471
2653,000000	60,530464
2652,000000	60,542385
2651,000000	60,544250
2650,000000	60,545354
2649,000000	60,556847
2648,000000	60,569608
2647,000000	60,572495
2646,000000	60,574317
2645,000000	60,585412
2644,000000	60,596237
2643,000000	60,596217
2642,000000	60,595615
2641,000000	60,605730
2640,000000	60,616687
2639,000000	60,617289
2638,000000	60,617659
2637,000000	60,629462
2636,000000	60,642514
2635,000000	60,644328
2634,000000	60,644065
2633,000000	60,653801
2632,000000	60,664676
2631,000000	60,665189
2630,000000	60,664233
2629,000000	60,673183
2628,000000	60,682920
2627,000000	60,682348
2626,000000	60,680853
2625,000000	60,689539
2624,000000	60,698947
2623,000000	60,698040
2622,000000	60,696836
2621,000000	60,706649
2620,000000	60,717254
2619,000000	60,716522
2618,000000	60,713974
2617,000000	60,721613
2616,000000	60,730454
2615,000000	60,729246
2614,000000	60,727280
2613,000000	60,735259
2612,000000	60,743065
2611,000000	60,739767
2610,000000	60,736421
2609,000000	60,745167
2608,000000	60,755352
2607,000000	60,753987
2606,000000	60,750228
2605,000000	60,755893
2604,000000	60,761205
2603,000000	60,754620
2602,000000	60,746504
2601,000000	60,749300
2600,000000	60,753154
2599,000000	60,746029
2598,000000	60,737918
2597,000000	60,741012
2596,000000	60,745329
2595,000000	60,738740
2594,000000	60,731562
2593,000000	60,736460
2592,000000	60,743828
2591,000000	60,741414
2590,000000	60,738940
2589,000000	60,748156
2588,000000	60,758820
2587,000000	60,759050
2586,000000	60,759595
2585,000000	60,772438
2584,000000	60,786000
2583,000000	60,786989
2582,000000	60,786644
2581,000000	60,799207
2580,000000	60,814396
2579,000000	60,817537
2578,000000	60,817162
2577,000000	60,826343
2576,000000	60,836388
2575,000000	60,835503
2574,000000	60,834104
2573,000000	60,844762
2572,000000	60,856531
2571,000000	60,855325
2570,000000	60,851156
2569,000000	60,858146
2568,000000	60,867247
2567,000000	60,864957
2566,000000	60,860484
2565,000000	60,867078
2564,000000	60,875533
2563,000000	60,872804
2562,000000	60,868289
2561,000000	60,875156
2560,000000	60,883954
2559,000000	60,881596
2558,000000	60,877204
2557,000000	60,883510
2556,000000	60,890808
2555,000000	60,886483
2554,000000	60,880679
2553,000000	60,886652
2552,000000	60,894299
2551,000000	60,890102
2550,000000	60,884022
2549,000000	60,889732
2548,000000	60,897604
2547,000000	60,893993
2546,000000	60,888507
2545,000000	60,894704
2544,000000	60,903051
2543,000000	60,900015
2542,000000	60,895147
2541,000000	60,901888
2540,000000	60,910550
2539,000000	60,907531
2538,000000	60,902496
2537,000000	60,908917
2536,000000	60,917113
2535,000000	60,913519
2534,000000	60,908119
2533,000000	60,914835
2532,000000	60,923718
2531,000000	60,920622
2530,000000	60,915020
2529,000000	60,921262
2528,000000	60,930205
2527,000000	60,927919
2526,000000	60,923321
2525,000000	60,929586
2524,000000	60,936973
2523,000000	60,932110
2522,000000	60,925307
2521,000000	60,930718
2520,000000	60,938088
2519,000000	60,932783
2518,000000	60,925033
2517,000000	60,930090
2516,000000	60,938411
2515,000000	60,933822
2514,000000	60,924274
2513,000000	60,925129
2512,000000	60,929611
2511,000000	60,924336
2510,000000	60,916848
2509,000000	60,919519
2508,000000	60,923365
2507,000000	60,915638
2506,000000	60,906004
2505,000000	60,908253
2504,000000	60,913174
2503,000000	60,907193
2502,000000	60,899486
2501,000000	60,903357
2500,000000	60,909015
2499,000000	60,902788
2498,000000	60,894408
2497,000000	60,897736
2496,000000	60,902903
2495,000000	60,895693
2494,000000	60,886030
2493,000000	60,888714
2492,000000	60,894608
2491,000000	60,889249
2490,000000	60,881775
2489,000000	60,886230
2488,000000	60,892946
2487,000000	60,887136
2486,000000	60,877924
2485,000000	60,879963
2484,000000	60,884658
2483,000000	60,878144
2482,000000	60,869642
2481,000000	60,873232
2480,000000	60,879371
2479,000000	60,873627
2478,000000	60,865150
2477,000000	60,868200
2476,000000	60,873227
2475,000000	60,865878
2474,000000	60,855984
2473,000000	60,858662
2472,000000	60,864630
2471,000000	60,858869
2470,000000	60,850424
2469,000000	60,853990
2468,000000	60,860156
2467,000000	60,853712
2466,000000	60,843812
2465,000000	60,845858
2464,000000	60,851361
2463,000000	60,845397
2462,000000	60,836467
2461,000000	60,838962
2460,000000	60,843815
2459,000000	60,836525
2458,000000	60,826802
2457,000000	60,830142
2456,000000	60,837317
2455,000000	60,832469
2454,000000	60,824004
2453,000000	60,827392
2452,000000	60,834412
2451,000000	60,830173
2450,000000	60,823342
2449,000000	60,828874
2448,000000	60,837494
2447,000000	60,833319
2446,000000	60,825102
2445,000000	60,829005
2444,000000	60,836729
2443,000000	60,831865
2442,000000	60,822094
2441,000000	60,823821
2440,000000	60,830574
2439,000000	60,827296
2438,000000	60,820947
2437,000000	60,825681
2436,000000	60,833195
2435,000000	60,828210
2434,000000	60,818678
2433,000000	60,819912
2432,000000	60,824119
2431,000000	60,816107
2430,000000	60,803869
2429,000000	60,802957
2428,000000	60,805653
2427,000000	60,796865
2426,000000	60,785383
2425,000000	60,787983
2424,000000	60,796757
2423,000000	60,793997
2422,000000	60,785454
2421,000000	60,787250
2420,000000	60,793310
2419,000000	60,788072
2418,000000	60,778374
2417,000000	60,780551
2416,000000	60,788110
2415,000000	60,783857
2414,000000	60,772837
2413,000000	60,771756
2412,000000	60,776778
2411,000000	60,772725
2410,000000	60,763836
2409,000000	60,764317
2408,000000	60,768882
2407,000000	60,763134
2406,000000	60,753146
2405,000000	60,754417
2404,000000	60,761184
2403,000000	60,757068
2402,000000	60,746855
2401,000000	60,747295
2400,000000	60,754880
2399,000000	60,753453
2398,000000	60,745441
2397,000000	60,745447
2396,000000	60,749715
2395,000000	60,742203
2394,000000	60,724060
2393,000000	60,706425
2392,000000	60,679022
2391,000000	60,612385
2390,000000	60,488274
2389,000000	60,293493
2388,000000	59,987547
2387,000000	59,508448
2386,000000	58,801229
2385,000000	57,829582
2384,000000	56,552985
2383,000000	54,935523
2382,000000	52,989056
2381,000000	50,770097
2380,000000	48,352154
2379,000000	45,805760
2378,000000	43,212511
2377,000000	40,661590
2376,000000	38,210657
2375,000000	35,878410
2374,000000	33,675189
2373,000000	31,625149
2372,000000	29,742343
2371,000000	28,019165
2370,000000	26,448409
2369,000000	25,043262
2368,000000	23,818125
2367,000000	22,758207
2366,000000	21,847918
2365,000000	21,102536
2364,000000	20,547271
2363,000000	20,173079
2362,000000	19,941134
2361,000000	19,851898
2360,000000	19,957890
2359,000000	20,298734
2358,000000	20,873814
2357,000000	21,686755
2356,000000	22,793065
2355,000000	24,264336
2354,000000	26,172943
2353,000000	28,637570
2352,000000	31,697021
2351,000000	34,943801
2350,000000	37,338111
2349,000000	37,763190
2348,000000	35,983956
2347,000000	32,983695
2346,000000	30,183338
2345,000000	28,367170
2344,000000	27,433291
2343,000000	26,961633
2342,000000	26,736791
2341,000000	26,711876
2340,000000	26,815181
2339,000000	26,960839
2338,000000	27,153878
2337,000000	27,420997
2336,000000	27,703982
2335,000000	27,899737
2334,000000	27,974237
2333,000000	27,987909
2332,000000	28,049804
2331,000000	28,286113
2330,000000	28,787193
2329,000000	29,519216
2328,000000	30,318493
2327,000000	31,016230
2326,000000	31,556457
2325,000000	31,997562
2324,000000	32,449594
2323,000000	33,036914
2322,000000	33,851280
2321,000000	34,898548
2320,000000	36,112907
2319,000000	37,422334
2318,000000	38,754521
2317,000000	39,990068
2316,000000	41,006274
2315,000000	41,806387
2314,000000	42,535897
2313,000000	43,336825
2312,000000	44,236858
2311,000000	45,201726
2310,000000	46,212569
2309,000000	47,250315
2308,000000	48,270030
2307,000000	49,245672
2306,000000	50,189118
2305,000000	51,088457
2304,000000	51,886004
2303,000000	52,557592
2302,000000	53,155075
2301,000000	53,731697
2300,000000	54,278003
2299,000000	54,773717
2298,000000	55,240796
2297,000000	55,699260
2296,000000	56,127407
2295,000000	56,510276
2294,000000	56,879639
2293,000000	57,259472
2292,000000	57,623055
2291,000000	57,947595
2290,000000	58,259721
2289,000000	58,584221
2288,000000	58,898482
2287,000000	59,178597
2286,000000	59,438072
2285,000000	59,674198
2284,000000	59,831919
2283,000000	59,874103
2282,000000	59,839163
2281,000000	59,785164
2280,000000	59,720863
2279,000000	59,639693
2278,000000	59,568958
2277,000000	59,532453
2276,000000	59,508530
2275,000000	59,473666
2274,000000	59,447868
2273,000000	59,451014
2272,000000	59,459547
2271,000000	59,450910
2270,000000	59,448015
2269,000000	59,473482
2268,000000	59,504810
2267,000000	59,519443
2266,000000	59,540064
2265,000000	59,588969
2264,000000	59,642691
2263,000000	59,677031
2262,000000	59,713308
2261,000000	59,773601
2260,000000	59,834844
2259,000000	59,873534
2258,000000	59,911343
2257,000000	59,970802
2256,000000	60,029365
2255,000000	60,064307
2254,000000	60,098008
2253,000000	60,152993
2252,000000	60,205961
2251,000000	60,233348
2250,000000	60,257706
2249,000000	60,302117
2248,000000	60,343700
2247,000000	60,359132
2246,000000	60,372110
2245,000000	60,407217
2244,000000	60,441918
2243,000000	60,451574
2242,000000	60,458377
2241,000000	60,486603
2240,000000	60,514377
2239,000000	60,517889
2238,000000	60,519801
2237,000000	60,544592
2236,000000	60,569850
2235,000000	60,570918
2234,000000	60,569916
2233,000000	60,591689
2232,000000	60,614234
2231,000000	60,612874
2230,000000	60,609450
2229,000000	60,628865
2228,000000	60,649373
2227,000000	60,646369
2226,000000	60,641402
2225,000000	60,658450
2224,000000	60,674499
2223,000000	60,663965
2222,000000	60,649145
2221,000000	60,656077
2220,000000	60,664583
2219,000000	60,650992
2218,000000	60,637642
2217,000000	60,648411
2216,000000	60,659845
2215,000000	60,646066
2214,000000	60,629658
2213,000000	60,636905
2212,000000	60,646532
2211,000000	60,633389
2210,000000	60,619131
2209,000000	60,628413
2208,000000	60,638381
2207,000000	60,624207
2206,000000	60,609337
2205,000000	60,619871
2204,000000	60,632244
2203,000000	60,619154
2202,000000	60,602710
2201,000000	60,610383
2200,000000	60,621381
2199,000000	60,610296
2198,000000	60,599007
2197,000000	60,612199
2196,000000	60,625970
2195,000000	60,613423
2194,000000	60,598056
2193,000000	60,607573
2192,000000	60,619764
2191,000000	60,607025
2190,000000	60,591380
2189,000000	60,599852
2188,000000	60,610731
2187,000000	60,597400
2186,000000	60,582381
2185,000000	60,592475
2184,000000	60,604540
2183,000000	60,591086
2182,000000	60,574686
2181,000000	60,583281
2180,000000	60,594336
2179,000000	60,580125
2178,000000	60,562554
2177,000000	60,568965
2176,000000	60,576897
2175,000000	60,558919
2174,000000	60,537559
2173,000000	60,540161
2172,000000	60,544237
2171,000000	60,523477
2170,000000	60,502982
2169,000000	60,511712
2168,000000	60,525684
2167,000000	60,514302
2166,000000	60,498405
2165,000000	60,504908
2164,000000	60,510795
2163,000000	60,489640
2162,000000	60,468068
2161,000000	60,476547
2160,000000	60,489912
2159,000000	60,475875
2158,000000	60,456559
2157,000000	60,462680
2156,000000	60,471855
2155,000000	60,454106
2154,000000	60,432301
2153,000000	60,437576
2152,000000	60,447776
2151,000000	60,432206
2150,000000	60,412079
2149,000000	60,416841
2148,000000	60,424112
2147,000000	60,404762
2146,000000	60,383094
2145,000000	60,390462
2144,000000	60,403097
2143,000000	60,387244
2142,000000	60,363381
2141,000000	60,362757
2140,000000	60,364557
2139,000000	60,338223
2138,000000	60,307086
2137,000000	60,306806
2136,000000	60,321143
2135,000000	60,318771
2134,000000	60,312643
2133,000000	60,324398
2132,000000	60,331892
2131,000000	60,311606
2130,000000	60,290352
2129,000000	60,297198
2128,000000	60,306879
2127,000000	60,288978
2126,000000	60,267075
2125,000000	60,271818
2124,000000	60,280503
2123,000000	60,263644
2122,000000	60,244142
2121,000000	60,251402
2120,000000	60,261355
2119,000000	60,241850
2118,000000	60,212778
2117,000000	60,203262
2116,000000	60,197229
2115,000000	60,176294
2114,000000	60,168334
2113,000000	60,194259
2112,000000	60,217800
2111,000000	60,205628
2110,000000	60,187002
2109,000000	60,195360
2108,000000	60,205613
2107,000000	60,188416
2106,000000	60,171559
2105,000000	60,185126
2104,000000	60,199754
2103,000000	60,183373
2102,000000	60,163749
2101,000000	60,173260
2100,000000	60,185095
2099,000000	60,168577
2098,000000	60,151049
2097,000000	60,162942
2096,000000	60,176016
2095,000000	60,158859
2094,000000	60,135210
2093,000000	60,126790
2092,000000	60,102542
2091,000000	60,048117
2090,000000	60,019185
2089,000000	60,054722
2088,000000	60,104821
2087,000000	60,113057
2086,000000	60,105926
2085,000000	60,125567
2084,000000	60,144666
2083,000000	60,126366
2082,000000	60,102653
2081,000000	60,111294
2080,000000	60,119100
2079,000000	60,089453
2078,000000	60,060845
2077,000000	60,076663
2076,000000	60,100849
2075,000000	60,088345
2074,000000	60,071821
2073,000000	60,094111
2072,000000	60,120641
2071,000000	60,107736
2070,000000	60,086560
2069,000000	60,086354
2068,000000	60,049171
2067,000000	59,929050
2066,000000	59,810434
2065,000000	59,809299
2064,000000	59,907660
2063,000000	59,994905
2062,000000	60,030645
2061,000000	60,055042
2060,000000	60,080100
2059,000000	60,082148
2058,000000	60,075211
2057,000000	60,091520
2056,000000	60,111522
2055,000000	60,099898
2054,000000	60,079838
2053,000000	60,090842
2052,000000	60,110419
2051,000000	60,099373
2050,000000	60,080403
2049,000000	60,091091
2048,000000	60,104862
2047,000000	60,082662
2046,000000	60,049763
2045,000000	60,036955
2044,000000	60,004180
2043,000000	59,918975
2042,000000	59,851521
2041,000000	59,885442
2040,000000	59,983928
2039,000000	60,047865
2038,000000	60,062748
2037,000000	60,080460
2036,000000	60,102797
2035,000000	60,093540
2034,000000	60,071154
2033,000000	60,080096
2032,000000	60,100084
2031,000000	60,083326
2030,000000	60,049731
2029,000000	60,049454
2028,000000	60,065928
2027,000000	60,052622
2026,000000	60,027217
2025,000000	60,033746
2024,000000	60,051511
2023,000000	60,036891
2022,000000	60,004780
2021,000000	59,968831
2020,000000	59,863591
2019,000000	59,652738
2018,000000	59,463509
2017,000000	59,470327
2016,000000	59,666101
2015,000000	59,878965
2014,000000	59,998175
2013,000000	60,050142
2012,000000	60,071411
2011,000000	60,050094
2010,000000	60,004485
2009,000000	59,992348
2008,000000	60,017418
2007,000000	60,028056
2006,000000	60,018542
2005,000000	60,032282
2004,000000	60,062615
2003,000000	60,055401
2002,000000	60,013373
2001,000000	59,993912
2000,000000	60,000750
1999,000000	59,988459
1998,000000	59,971703
1997,000000	59,995580
1996,000000	59,978667
1995,000000	59,743974
1994,000000	59,283442
1993,000000	58,869539
1992,000000	58,790826
1991,000000	59,040999
1990,000000	59,369532
1989,000000	59,584231
1988,000000	59,697832
1987,000000	59,800976
1986,000000	59,907022
1985,000000	59,967815
1984,000000	59,970835
1983,000000	59,955782
1982,000000	59,953240
1981,000000	59,954606
1980,000000	59,945241
1979,000000	59,931653
1978,000000	59,924999
1977,000000	59,921193
1976,000000	59,912971
1975,000000	59,905007
1974,000000	59,904292
1973,000000	59,908216
1972,000000	59,898409
1971,000000	59,824321
1970,000000	59,615200
1969,000000	59,277423
1968,000000	58,981865
1967,000000	58,953770
1966,000000	59,224215
1965,000000	59,567979
1964,000000	59,751540
1963,000000	59,764701
1962,000000	59,738309
1961,000000	59,733104
1960,000000	59,721757
1959,000000	59,702169
1958,000000	59,696753
1957,000000	59,682919
1956,000000	59,639411
1955,000000	59,620077
1954,000000	59,673706
1953,000000	59,744747
1952,000000	59,758362
1951,000000	59,737301
1950,000000	59,725063
1949,000000	59,678150
1948,000000	59,553696
1947,000000	59,388733
1946,000000	59,154631
1945,000000	58,700123
1944,000000	58,063632
1943,000000	57,680259
1942,000000	57,959608
1941,000000	58,726357
1940,000000	59,390178
1939,000000	59,641579
1938,000000	59,665329
1937,000000	59,690033
1936,000000	59,693770
1935,000000	59,622787
1934,000000	59,569301
1933,000000	59,597135
1932,000000	59,628980
1931,000000	59,613478
1930,000000	59,611231
1929,000000	59,647176
1928,000000	59,647970
1927,000000	59,543991
1926,000000	59,275219
1925,000000	58,786975
1924,000000	58,235083
1923,000000	58,021201
1922,000000	58,256677
1921,000000	58,364915
1920,000000	57,749751
1919,000000	56,791066
1918,000000	56,557142
1917,000000	57,424167
1916,000000	58,611172
1915,000000	59,262005
1914,000000	59,360471
1913,000000	59,282185
1912,000000	59,076051
1911,000000	58,681362
1910,000000	58,376426
1909,000000	58,465885
1908,000000	58,792116
1907,000000	59,008317
1906,000000	59,088824
1905,000000	59,195349
1904,000000	59,285104
1903,000000	59,241757
1902,000000	59,176959
1901,000000	59,241584
1900,000000	59,318483
1899,000000	59,211382
1898,000000	58,955504
1897,000000	58,696071
1896,000000	58,488258
1895,000000	58,414172
1894,000000	58,573177
1893,000000	58,720408
1892,000000	58,351650
1891,000000	57,481018
1890,000000	56,908012
1889,000000	57,256782
1888,000000	58,137474
1887,000000	58,732628
1886,000000	58,856737
1885,000000	58,897342
1884,000000	59,017497
1883,000000	59,054794
1882,000000	59,008365
1881,000000	59,046008
1880,000000	59,119048
1879,000000	59,066230
1878,000000	58,979120
1877,000000	59,037321
1876,000000	59,138232
1875,000000	59,095059
1874,000000	58,960520
1873,000000	58,682477
1872,000000	57,790624
1871,000000	56,072180
1870,000000	54,350747
1869,000000	53,839507
1868,000000	54,775860
1867,000000	56,288327
1866,000000	57,539953
1865,000000	58,361882
1864,000000	58,813762
1863,000000	58,876793
1862,000000	58,716875
1861,000000	58,662700
1860,000000	58,752805
1859,000000	58,759241
1858,000000	58,687119
1857,000000	58,768321
1856,000000	58,953250
1855,000000	58,953234
1854,000000	58,801091
1853,000000	58,803183
1852,000000	58,901906
1851,000000	58,714201
1850,000000	58,242225
1849,000000	57,842685
1848,000000	57,336797
1847,000000	55,962300
1846,000000	53,675207
1845,000000	51,844219
1844,000000	51,987830
1843,000000	54,081138
1842,000000	56,605299
1841,000000	58,130324
1840,000000	58,429656
1839,000000	58,174408
1838,000000	57,988891
1837,000000	58,005419
1836,000000	58,110518
1835,000000	58,228951
1834,000000	58,167443
1833,000000	57,435546
1832,000000	55,777199
1831,000000	53,957821
1830,000000	53,348155
1829,000000	54,303552
1828,000000	55,507311
1827,000000	55,598166
1826,000000	54,923118
1825,000000	54,909079
1824,000000	56,018698
1823,000000	57,316809
1822,000000	57,970851
1821,000000	58,121981
1820,000000	58,149211
1819,000000	58,020620
1818,000000	57,751662
1817,000000	57,702051
1816,000000	57,978586
1815,000000	58,106768
1814,000000	57,687625
1813,000000	56,945112
1812,000000	56,336618
1811,000000	56,068996
1810,000000	56,189045
1809,000000	56,688773
1808,000000	57,298516
1807,000000	57,604094
1806,000000	57,512040
1805,000000	57,200033
1804,000000	56,602052
1803,000000	55,540590
1802,000000	54,394524
1801,000000	53,943754
1800,000000	54,384812
1799,000000	55,138005
1798,000000	55,729393
1797,000000	56,061214
1796,000000	55,736187
1795,000000	54,119420
1794,000000	51,586847
1793,000000	49,797124
1792,000000	50,104797
1791,000000	52,179215
1790,000000	54,621616
1789,000000	56,321848
1788,000000	56,828104
1787,000000	56,221835
1786,000000	55,243146
1785,000000	54,887982
1784,000000	55,284205
1783,000000	55,533844
1782,000000	55,110425
1781,000000	54,694913
1780,000000	55,019085
1779,000000	55,699291
1778,000000	55,929394
1777,000000	55,526438
1776,000000	54,461818
1775,000000	52,269125
1774,000000	49,123884
1773,000000	46,776833
1772,000000	46,964052
1771,000000	49,104959
1770,000000	50,999881
1769,000000	51,697814
1768,000000	52,326959
1767,000000	53,877012
1766,000000	55,488236
1765,000000	55,617371
1764,000000	54,049160
1763,000000	52,141588
1762,000000	51,426212
1761,000000	52,258586
1760,000000	53,582356
1759,000000	53,958253
1758,000000	53,172974
1757,000000	52,595958
1756,000000	53,327107
1755,000000	54,402162
1754,000000	53,801709
1753,000000	51,184363
1752,000000	48,467544
1751,000000	47,445732
1750,000000	48,017892
1749,000000	49,135780
1748,000000	50,348971
1747,000000	51,595577
1746,000000	52,425785
1745,000000	52,477364
1744,000000	52,125359
1743,000000	51,759128
1742,000000	51,007040
1741,000000	49,723376
1740,000000	49,069271
1739,000000	50,118444
1738,000000	51,482422
1737,000000	50,211766
1736,000000	45,668572
1735,000000	41,142190
1734,000000	40,456296
1733,000000	43,770335
1732,000000	47,983499
1731,000000	50,604524
1730,000000	51,821777
1729,000000	52,877184
1728,000000	53,978983
1727,000000	54,525353
1726,000000	54,366919
1725,000000	53,980047
1724,000000	53,795085
1723,000000	53,783061
1722,000000	53,391314
1721,000000	51,615451
1720,000000	47,907231
1719,000000	43,459552
1718,000000	40,787075
1717,000000	41,306833
1716,000000	43,943444
1715,000000	46,757525
1714,000000	49,136228
1713,000000	51,371698
1712,000000	53,060673
1711,000000	53,439399
1710,000000	52,821586
1709,000000	52,077632
1708,000000	51,044120
1707,000000	49,213813
1706,000000	47,658325
1705,000000	47,900821
1704,000000	48,681020
1703,000000	46,611435
1702,000000	41,209052
1701,000000	36,778888
1700,000000	37,143113
1699,000000	40,521371
1698,000000	42,257617
1697,000000	41,288509
1696,000000	41,034627
1695,000000	44,071631
1694,000000	48,810262
1693,000000	52,056226
1692,000000	52,691472
1691,000000	51,938047
1690,000000	51,256341
1689,000000	50,933050
1688,000000	49,878398
1687,000000	46,619207
1686,000000	41,438839
1685,000000	37,381682
1684,000000	37,682498
1683,000000	42,057560
1682,000000	46,945488
1681,000000	49,739193
1680,000000	50,888007
1679,000000	51,396430
1678,000000	50,568862
1677,000000	47,843482
1676,000000	45,143836
1675,000000	45,028292
1674,000000	47,165236
1673,000000	48,589755
1672,000000	47,510533
1671,000000	45,233269
1670,000000	44,174912
1669,000000	45,350880
1668,000000	48,050102
1667,000000	50,758700
1666,000000	51,932276
1665,000000	50,894699
1664,000000	48,730774
1663,000000	47,616130
1662,000000	48,622365
1661,000000	50,683680
1660,000000	52,121353
1659,000000	52,471048
1658,000000	51,998534
1657,000000	49,960676
1656,000000	44,979229
1655,000000	37,661769
1654,000000	31,789737
1653,000000	31,445523
1652,000000	36,780038
1651,000000	43,475532
1650,000000	46,698019
1649,000000	45,339875
1648,000000	42,175020
1647,000000	40,644985
1646,000000	42,090231
1645,000000	45,540443
1644,000000	49,047105
1643,000000	51,136659
1642,000000	51,593180
1641,000000	51,204756
1640,000000	50,452147
1639,000000	48,650277
1638,000000	45,099657
1637,000000	40,967541
1636,000000	38,987837
1635,000000	40,777516
1634,000000	45,062567
1633,000000	49,065649
1632,000000	51,029265
1631,000000	51,008562
1630,000000	49,946368
1629,000000	48,819576
1628,000000	48,285534
1627,000000	48,265703
1626,000000	47,907616
1625,000000	46,661855
1624,000000	45,351673
1623,000000	45,478268
1622,000000	47,308029
1621,000000	49,143336
1620,000000	48,859237
1619,000000	46,041414
1618,000000	42,503538
1617,000000	40,831767
1616,000000	42,229475
1615,000000	45,554143
1614,000000	48,455235
1613,000000	49,514106
1612,000000	49,158718
1611,000000	48,583453
1610,000000	48,301814
1609,000000	48,142410
1608,000000	48,072778
1607,000000	48,292557
1606,000000	48,666837
1605,000000	48,779914
1604,000000	48,594823
1603,000000	48,519051
1602,000000	48,744543
1601,000000	49,008681
1600,000000	49,104092
1599,000000	49,141697
1598,000000	49,181563
1597,000000	49,059092
1596,000000	48,772860
1595,000000	48,637644
1594,000000	48,823412
1593,000000	49,076227
1592,000000	49,128645
1591,000000	49,089241
1590,000000	49,176324
1589,000000	49,331941
1588,000000	49,372203
1587,000000	49,326606
1586,000000	49,344576
1585,000000	49,392072
1584,000000	49,318440
1583,000000	49,172529
1582,000000	49,177913
1581,000000	49,230269
1580,000000	48,591792
1579,000000	46,400316
1578,000000	42,854354
1577,000000	39,786360
1576,000000	39,473068
1575,000000	42,354835
1574,000000	46,132328
1573,000000	47,723649
1572,000000	46,214166
1571,000000	43,526766
1570,000000	42,220670
1569,000000	43,103280
1568,000000	45,002755
1567,000000	46,362467
1566,000000	46,664858
1565,000000	46,478801
1564,000000	46,228740
1563,000000	44,984284
1562,000000	41,072303
1561,000000	34,555374
1560,000000	28,640919
1559,000000	27,251408
1558,000000	30,881247
1557,000000	36,052336
1556,000000	39,359715
1555,000000	40,804070
1554,000000	42,277588
1553,000000	44,184560
1552,000000	45,286208
1551,000000	45,264827
1550,000000	45,332624
1549,000000	46,112921
1548,000000	46,518839
1547,000000	45,428256
1546,000000	43,255179
1545,000000	41,086106
1544,000000	39,092256
1543,000000	36,643161
1542,000000	33,650124
1541,000000	31,234122
1540,000000	31,135622
1539,000000	34,342853
1538,000000	39,733901
1537,000000	44,196535
1536,000000	45,116907
1535,000000	43,112267
1534,000000	41,401312
1533,000000	42,201250
1532,000000	44,605174
1531,000000	46,380051
1530,000000	46,564063
1529,000000	45,606472
1528,000000	44,112583
1527,000000	42,649546
1526,000000	41,875630
1525,000000	41,603882
1524,000000	40,477883
1523,000000	37,899445
1522,000000	35,659611
1521,000000	36,012391
1520,000000	38,513157
1519,000000	40,490588
1518,000000	40,710542
1517,000000	40,709969
1516,000000	42,031684
1515,000000	43,910064
1514,000000	44,705745
1513,000000	44,333767
1512,000000	43,801944
1511,000000	43,094339
1510,000000	40,958760
1509,000000	36,920947
1508,000000	32,605613
1507,000000	30,688794
1506,000000	32,691536
1505,000000	37,674569
1504,000000	42,876226
1503,000000	45,804411
1502,000000	45,951953
1501,000000	44,484644
1500,000000	42,542526
1499,000000	40,412393
1498,000000	38,370664
1497,000000	37,367678
1496,000000	38,214183
1495,000000	40,361417
1494,000000	42,128714
1493,000000	42,184328
1492,000000	40,662051
1491,000000	38,913505
1490,000000	38,313390
1489,000000	39,193264
1488,000000	40,873102
1487,000000	42,623713
1486,000000	44,292639
1485,000000	45,805328
1484,000000	46,651496
1483,000000	46,534297
1482,000000	46,119543
1481,000000	46,259471
1480,000000	46,639024
1479,000000	46,189916
1478,000000	44,748254
1477,000000	43,188081
1476,000000	41,839164
1475,000000	40,076495
1474,000000	37,973231
1473,000000	37,050355
1472,000000	38,550752
1471,000000	41,742066
1470,000000	44,729097
1469,000000	46,233436
1468,000000	46,001690
1467,000000	44,390861
1466,000000	42,444647
1465,000000	41,686569
1464,000000	42,757972
1463,000000	44,562248
1462,000000	45,319597
1461,000000	44,109935
1460,000000	40,995773
1459,000000	36,707576
1458,000000	32,964447
1457,000000	32,078793
1456,000000	34,811993
1455,000000	39,139608
1454,000000	42,252515
1453,000000	43,380981
1452,000000	43,624386
1451,000000	43,646496
1450,000000	43,143706
1449,000000	42,292370
1448,000000	42,119961
1447,000000	43,064591
1446,000000	44,349573
1445,000000	45,129096
1444,000000	45,392451
1443,000000	45,511120
1442,000000	45,598837
1441,000000	45,453205
1440,000000	44,554268
1439,000000	42,361326
1438,000000	39,394241
1437,000000	37,639491
1436,000000	38,702326
1435,000000	41,699117
1434,000000	44,068439
1433,000000	44,501018
1432,000000	43,866586
1431,000000	43,387314
1430,000000	43,323544
1429,000000	43,607198
1428,000000	44,295017
1427,000000	44,899429
1426,000000	44,610236
1425,000000	43,671682
1424,000000	43,279705
1423,000000	43,494502
1422,000000	42,733488
1421,000000	40,220702
1420,000000	37,672107
1419,000000	37,342344
1418,000000	39,264459
1417,000000	41,675318
1416,000000	43,332540
1415,000000	44,248504
1414,000000	44,641267
1413,000000	44,520341
1412,000000	44,186080
1411,000000	44,100516
1410,000000	44,220268
1409,000000	44,105462
1408,000000	43,596549
1407,000000	42,867340
1406,000000	42,115062
1405,000000	41,658642
1404,000000	41,904292
1403,000000	42,615457
1402,000000	42,749474
1401,000000	41,738625
1400,000000	40,473963
1399,000000	40,126796
1398,000000	40,482398
1397,000000	40,420655
1396,000000	39,764808
1395,000000	39,566944
1394,000000	40,517022
1393,000000	42,079719
1392,000000	43,286926
1391,000000	43,614642
1390,000000	42,979905
1389,000000	41,691885
1388,000000	40,614369
1387,000000	40,637816
1386,000000	41,682864
1385,000000	42,771781
1384,000000	43,242414
1383,000000	43,316717
1382,000000	43,384568
1381,000000	43,388864
1380,000000	43,217246
1379,000000	43,056728
1378,000000	42,969950
1377,000000	42,607914
1376,000000	41,794182
1375,000000	41,034774
1374,000000	41,000071
1373,000000	41,703337
1372,000000	42,517943
1371,000000	42,906471
1370,000000	42,859690
1369,000000	42,722468
1368,000000	42,778643
1367,000000	42,939750
1366,000000	42,785232
1365,000000	42,030852
1364,000000	40,985539
1363,000000	40,366547
1362,000000	40,574105
1361,000000	41,339170
1360,000000	42,124877
1359,000000	42,632950
1358,000000	42,847175
1357,000000	42,835252
1356,000000	42,710147
1355,000000	42,634837
1354,000000	42,685196
1353,000000	42,765572
1352,000000	42,757216
1351,000000	42,672147
1350,000000	42,597538
1349,000000	42,570915
1348,000000	42,573169
1347,000000	42,582389
1346,000000	42,583554
1345,000000	42,555817
1344,000000	42,448308
1343,000000	42,151124
1342,000000	41,576470
1341,000000	40,852871
1340,000000	40,347933
1339,000000	40,350788
1338,000000	40,770562
1337,000000	41,283647
1336,000000	41,693096
1335,000000	41,997834
1334,000000	42,195209
1333,000000	42,236345
1332,000000	42,167766
1331,000000	42,116163
1330,000000	42,113333
1329,000000	42,085205
1328,000000	42,018600
1327,000000	41,978719
1326,000000	41,967460
1325,000000	41,915861
1324,000000	41,817978
1323,000000	41,720631
1322,000000	41,590463
1321,000000	41,352201
1320,000000	41,067469
1319,000000	40,911580
1318,000000	40,941184
1317,000000	41,026856
1316,000000	41,037865
1315,000000	40,977113
1314,000000	40,909163
1313,000000	40,874917
1312,000000	40,896667
1311,000000	40,963280
1310,000000	40,999016
1309,000000	40,941184
1308,000000	40,839556
1307,000000	40,787922
1306,000000	40,779454
1305,000000	40,736420
1304,000000	40,655488
1303,000000	40,599915
1302,000000	40,571533
1301,000000	40,510917
1300,000000	40,416472
1299,000000	40,341703
1298,000000	40,288050
1297,000000	40,212290
1296,000000	40,127951
1295,000000	40,084447
1294,000000	40,060190
1293,000000	39,988345
1292,000000	39,873051
1291,000000	39,772074
1290,000000	39,684261
1289,000000	39,570810
1288,000000	39,462302
1287,000000	39,425083
1286,000000	39,433973
1285,000000	39,400638
1284,000000	39,312928
1283,000000	39,233039
1282,000000	39,171280
1281,000000	39,080698
1280,000000	38,966608
1279,000000	38,882169
1278,000000	38,821926
1277,000000	38,728550
1276,000000	38,598731
1275,000000	38,473502
1274,000000	38,340137
1273,000000	38,152782
1272,000000	37,940983
1271,000000	37,781508
1270,000000	37,670446
1269,000000	37,531552
1268,000000	37,344748
1267,000000	37,160652
1266,000000	36,992631
1265,000000	36,803814
1264,000000	36,596862
1263,000000	36,418925
1262,000000	36,280086
1261,000000	36,163193
1260,000000	36,099278
1259,000000	36,131829
1258,000000	36,218176
1257,000000	36,268227
1256,000000	36,269394
1255,000000	36,275693
1254,000000	36,289323
1253,000000	36,259171
1252,000000	36,187127
1251,000000	36,126518
1250,000000	36,080535
1249,000000	36,002870
1248,000000	35,895304
1247,000000	35,804512
1246,000000	35,729119
1245,000000	35,626732
1244,000000	35,507988
1243,000000	35,424148
1242,000000	35,367190
1241,000000	35,280368
1240,000000	35,162342
1239,000000	35,065177
1238,000000	34,992203
1237,000000	34,896498
1236,000000	34,776359
1235,000000	34,677528
1234,000000	34,600379
1233,000000	34,499483
1232,000000	34,374459
1231,000000	34,270416
1230,000000	34,187723
1229,000000	34,080649
1228,000000	33,946082
1227,000000	33,826637
1226,000000	33,727524
1225,000000	33,613823
1224,000000	33,488095
1223,000000	33,385383
1222,000000	33,295300
1221,000000	33,172758
1220,000000	33,023242
1219,000000	32,894243
1218,000000	32,787359
1217,000000	32,660684
1216,000000	32,512591
1215,000000	32,380741
1214,000000	32,264181
1213,000000	32,130056
1212,000000	31,990727
1211,000000	31,890283
1210,000000	31,819551
1209,000000	31,728104
1208,000000	31,614437
1207,000000	31,522161
1206,000000	31,451603
1205,000000	31,360588
1204,000000	31,248934
1203,000000	31,157908
1202,000000	31,087563
1201,000000	30,996849
1200,000000	30,885417
1199,000000	30,794062
1198,000000	30,724418
1197,000000	30,636778
1196,000000	30,527893
1195,000000	30,433080
1194,000000	30,352096
1193,000000	30,249690
1192,000000	30,128437
1191,000000	30,025141
1190,000000	29,936307
1189,000000	29,823002
1188,000000	29,688376
1187,000000	29,574347
1186,000000	29,481479
1185,000000	29,366121
1184,000000	29,217092
1183,000000	29,064791
1182,000000	28,917404
1181,000000	28,760741
1180,000000	28,616939
1179,000000	28,527370
1178,000000	28,476622
1177,000000	28,406616
1176,000000	28,305702
1175,000000	28,212939
1174,000000	28,137336
1173,000000	28,046374
1172,000000	27,935462
1171,000000	27,835470
1170,000000	27,747764
1169,000000	27,641157
1168,000000	27,516467
1167,000000	27,407144
1166,000000	27,314200
1165,000000	27,206241
1164,000000	27,084090
1163,000000	26,979840
1162,000000	26,892389
1161,000000	26,789287
1160,000000	26,672035
1159,000000	26,574274
1158,000000	26,496140
1157,000000	26,404817
1156,000000	26,299577
1155,000000	26,211223
1154,000000	26,138615
1153,000000	26,049953
1152,000000	25,946403
1151,000000	25,860377
1150,000000	25,791002
1149,000000	25,705260
1148,000000	25,602385
1147,000000	25,514622
1146,000000	25,443824
1145,000000	25,360272
1144,000000	25,264008
1143,000000	25,185966
1142,000000	25,127163
1141,000000	25,057398
1140,000000	24,973787
1139,000000	24,901477
1138,000000	24,837647
1137,000000	24,754234
1136,000000	24,655207
1135,000000	24,571338
1134,000000	24,500180
1133,000000	24,409682
1132,000000	24,300289
1131,000000	24,203290
1130,000000	24,120154
1129,000000	24,022346
1128,000000	23,910488
1127,000000	23,814024
1126,000000	23,732543
1125,000000	23,636246
1124,000000	23,524070
1123,000000	23,424203
1122,000000	23,336785
1121,000000	23,234177
1120,000000	23,116922
1119,000000	23,013486
1118,000000	22,923812
1117,000000	22,820254
1116,000000	22,703294
1115,000000	22,601009
1114,000000	22,513458
1113,000000	22,413398
1112,000000	22,301581
1111,000000	22,205595
1110,000000	22,124833
1109,000000	22,031357
1108,000000	21,926334
1107,000000	21,839352
1106,000000	21,772532
1105,000000	21,698265
1104,000000	21,613527
1103,000000	21,542072
1102,000000	21,482802
1101,000000	21,409350
1100,000000	21,321852
1099,000000	21,246816
1098,000000	21,184645
1097,000000	21,109778
1096,000000	21,022324
1095,000000	20,948707
1094,000000	20,889577
1093,000000	20,819596
1092,000000	20,738234
1091,000000	20,670783
1090,000000	20,617564
1089,000000	20,553140
1088,000000	20,476565
1087,000000	20,412468
1086,000000	20,361631
1085,000000	20,299201
1084,000000	20,223480
1083,000000	20,157739
1082,000000	20,104382
1081,000000	20,043808
1080,000000	19,979422
1079,000000	19,934640
1078,000000	19,907121
1077,000000	19,872238
1076,000000	19,831403
1075,000000	19,809431
1074,000000	19,804878
1073,000000	19,791596
1072,000000	19,767791
1071,000000	19,756586
1070,000000	19,758004
1069,000000	19,748944
1068,000000	19,729658
1067,000000	19,724054
1066,000000	19,732482
1065,000000	19,731891
1064,000000	19,721679
1063,000000	19,724156
1062,000000	19,738954
1061,000000	19,742763
1060,000000	19,734113
1059,000000	19,732282
1058,000000	19,731569
1057,000000	19,700028
1056,000000	19,627001
1055,000000	19,528275
1054,000000	19,410298
1053,000000	19,273403
1052,000000	19,150989
1051,000000	19,095972
1050,000000	19,126674
1049,000000	19,222073
1048,000000	19,365839
1047,000000	19,551527
1046,000000	19,746540
1045,000000	19,904657
1044,000000	20,016858
1043,000000	20,109966
1042,000000	20,193752
1041,000000	20,254066
1040,000000	20,294742
1039,000000	20,340720
1038,000000	20,395808
1037,000000	20,440105
1036,000000	20,472496
1035,000000	20,513054
1034,000000	20,562601
1033,000000	20,601013
1032,000000	20,628079
1031,000000	20,664059
1030,000000	20,709550
1029,000000	20,744364
1028,000000	20,768608
1027,000000	20,802900
1026,000000	20,847934
1025,000000	20,883439
1024,000000	20,909208
1023,000000	20,946377
1022,000000	20,996651
1021,000000	21,040373
1020,000000	21,076157
1019,000000	21,123819
1018,000000	21,184863
1017,000000	21,240838
1016,000000	21,291011
1015,000000	21,354318
1014,000000	21,430886
1013,000000	21,500744
1012,000000	21,561955
1011,000000	21,632443
1010,000000	21,712007
1009,000000	21,780301
1008,000000	21,834992
1007,000000	21,894034
1006,000000	21,958945
1005,000000	22,011672
1004,000000	22,050748
1003,000000	22,093219
1002,000000	22,139529
1001,000000	22,171569
1000,000000	22,188670
999,000000	22,208712
998,000000	22,232946
997,000000	22,244274
996,000000	22,242072
995,000000	22,244062
994,000000	22,250945
993,000000	22,245584
992,000000	22,227419
991,000000	22,214147
990,000000	22,206653
989,000000	22,187691
988,000000	22,156217
987,000000	22,129524
986,000000	22,108819
985,000000	22,077623
984,000000	22,035598
983,000000	22,000240
982,000000	21,973036
981,000000	21,936759
980,000000	21,889547
979,000000	21,847354
978,000000	21,811809
977,000000	21,767152
976,000000	21,712436
975,000000	21,663679
974,000000	21,622558
973,000000	21,573950
972,000000	21,516791
971,000000	21,465693
970,000000	21,420470
969,000000	21,365611
968,000000	21,301029
967,000000	21,243002
966,000000	21,192191
965,000000	21,133041
964,000000	21,064816
963,000000	21,003199
962,000000	20,948803
961,000000	20,886132
960,000000	20,814723
959,000000	20,750703
958,000000	20,695486
957,000000	20,633662
956,000000	20,564079
955,000000	20,501800
954,000000	20,447881
953,000000	20,386669
952,000000	20,316587
951,000000	20,252864
950,000000	20,198324
949,000000	20,139667
948,000000	20,075602
947,000000	20,019084
946,000000	19,970002
945,000000	19,914091
944,000000	19,850892
943,000000	19,794777
942,000000	19,746042
941,000000	19,689961
940,000000	19,625211
939,000000	19,566085
938,000000	19,513866
937,000000	19,455025
936,000000	19,388624
935,000000	19,328499
934,000000	19,275871
933,000000	19,217443
932,000000	19,152280
931,000000	19,093447
930,000000	19,041760
929,000000	18,984096
928,000000	18,919811
927,000000	18,861583
926,000000	18,809740
925,000000	18,751198
924,000000	18,685704
923,000000	18,626115
922,000000	18,572467
921,000000	18,511416
920,000000	18,442419
919,000000	18,378254
918,000000	18,318608
917,000000	18,249827
916,000000	18,171251
915,000000	18,096342
914,000000	18,026144
913,000000	17,948413
912,000000	17,863571
911,000000	17,786325
910,000000	17,719175
909,000000	17,650177
908,000000	17,578059
907,000000	17,514487
906,000000	17,459657
905,000000	17,400584
904,000000	17,335729
903,000000	17,276812
902,000000	17,224837
901,000000	17,167631
900,000000	17,103963
899,000000	17,045819
898,000000	16,995604
897,000000	16,943115
896,000000	16,887002
895,000000	16,836342
894,000000	16,789824
893,000000	16,735656
892,000000	16,673160
891,000000	16,613017
890,000000	16,554964
889,000000	16,487730
888,000000	16,410677
887,000000	16,334197
886,000000	16,258058
885,000000	16,171663
884,000000	16,075928
883,000000	15,983284
882,000000	15,895408
881,000000	15,803192
880,000000	15,709468
879,000000	15,629809
878,000000	15,569658
877,000000	15,521299
876,000000	15,483878
875,000000	15,465454
874,000000	15,463858
873,000000	15,466076
872,000000	15,469142
871,000000	15,480836
870,000000	15,499795
869,000000	15,513781
868,000000	15,519222
867,000000	15,523384
866,000000	15,526242
865,000000	15,519279
864,000000	15,502859
863,000000	15,486681
862,000000	15,471516
861,000000	15,449109
860,000000	15,419834
859,000000	15,392927
858,000000	15,368443
857,000000	15,336942
856,000000	15,297823
855,000000	15,260610
854,000000	15,227577
853,000000	15,191927
852,000000	15,153846
851,000000	15,121559
850,000000	15,095991
849,000000	15,069964
848,000000	15,043026
847,000000	15,021299
846,000000	15,002859
845,000000	14,978667
844,000000	14,948219
843,000000	14,919268
842,000000	14,892497
841,000000	14,861064
840,000000	14,824488
839,000000	14,788249
838,000000	14,750381
837,000000	14,702572
836,000000	14,643749
835,000000	14,578868
834,000000	14,504774
833,000000	14,412300
832,000000	14,300908
831,000000	14,178838
830,000000	14,049841
829,000000	13,913353
828,000000	13,777091
827,000000	13,656257
826,000000	13,561406
825,000000	13,497782
824,000000	13,474717
823,000000	13,499684
822,000000	13,564118
821,000000	13,646428
820,000000	13,729145
819,000000	13,804057
818,000000	13,863475
817,000000	13,900837
816,000000	13,919001
815,000000	13,926875
814,000000	13,927344
813,000000	13,917921
812,000000	13,900490
811,000000	13,880250
810,000000	13,857218
809,000000	13,828124
808,000000	13,795177
807,000000	13,763569
806,000000	13,732810
805,000000	13,699613
804,000000	13,666491
803,000000	13,638694
802,000000	13,615296
801,000000	13,592247
800,000000	13,571373
799,000000	13,557913
798,000000	13,551662
797,000000	13,548690
796,000000	13,549423
795,000000	13,556995
794,000000	13,570263
793,000000	13,585487
792,000000	13,602584
791,000000	13,623223
790,000000	13,645181
789,000000	13,664837
788,000000	13,682548
787,000000	13,700255
786,000000	13,716590
785,000000	13,729292
784,000000	13,739399
783,000000	13,748575
782,000000	13,755420
781,000000	13,758133
780,000000	13,757768
779,000000	13,755785
778,000000	13,751901
777,000000	13,746679
776,000000	13,742220
775,000000	13,738362
774,000000	13,732095
773,000000	13,722145
772,000000	13,710114
771,000000	13,696657
770,000000	13,681105
769,000000	13,664690
768,000000	13,649245
767,000000	13,633369
766,000000	13,614731
765,000000	13,594825
764,000000	13,576254
763,000000	13,557650
762,000000	13,536715
761,000000	13,515194
760,000000	13,495065
759,000000	13,473790
758,000000	13,449398
757,000000	13,425400
756,000000	13,404199
755,000000	13,381579
754,000000	13,354613
753,000000	13,327988
752,000000	13,305169
751,000000	13,281319
750,000000	13,252901
749,000000	13,224857
748,000000	13,199952
747,000000	13,171650
746,000000	13,136926
745,000000	13,103766
744,000000	13,076040
743,000000	13,044844
742,000000	13,006469
741,000000	12,973175
740,000000	12,952490
739,000000	12,932279
738,000000	12,901353
737,000000	12,868016
736,000000	12,841429
735,000000	12,813290
734,000000	12,775739
733,000000	12,738885
732,000000	12,711034
731,000000	12,681664
730,000000	12,643370
729,000000	12,608722
728,000000	12,584869
727,000000	12,557025
726,000000	12,519220
725,000000	12,487972
724,000000	12,456906
723,000000	12,376650
722,000000	12,228129
721,000000	12,083519
720,000000	12,038826
719,000000	12,098851
718,000000	12,179987
717,000000	12,215376
716,000000	12,205488
715,000000	12,175488
714,000000	12,136751
713,000000	12,096878
712,000000	12,063196
711,000000	12,028351
710,000000	11,980593
709,000000	11,927004
708,000000	11,879942
707,000000	11,831808
706,000000	11,771338
705,000000	11,710095
704,000000	11,661565
703,000000	11,611918
702,000000	11,543813
701,000000	11,467999
700,000000	11,398760
699,000000	11,322632
698,000000	11,227682
697,000000	11,133440
696,000000	11,054624
695,000000	10,967327
694,000000	10,852292
693,000000	10,731585
692,000000	10,620248
691,000000	10,488117
690,000000	10,322437
689,000000	10,176746
688,000000	10,096560
687,000000	10,049751
686,000000	9,993285
685,000000	9,950115
684,000000	9,944182
683,000000	9,929663
682,000000	9,869107
681,000000	9,814682
680,000000	9,814090
679,000000	9,815764
678,000000	9,771249
677,000000	9,741721
676,000000	9,780844
675,000000	9,820748
674,000000	9,811265
673,000000	9,802949
672,000000	9,676325
671,000000	8,998820
670,000000	7,586986
669,000000	6,137259
668,000000	5,798166
667,000000	6,914095
666,000000	8,569929
665,000000	9,623308
664,000000	9,821782
663,000000	9,678997
662,000000	9,587515
661,000000	9,507540
660,000000	9,363928
659,000000	9,255497
658,000000	9,233465
657,000000	9,197391
656,000000	9,102066
655,000000	9,035097
654,000000	9,035831
653,000000	9,021141
652,000000	8,946949
651,000000	8,877755
650,000000	8,854129
649,000000	8,835979
648,000000	8,813357
647,000000	8,837103
646,000000	8,902698
645,000000	8,932478
644,000000	8,904322
643,000000	8,884309
642,000000	8,899457
641,000000	8,897437
640,000000	8,857330
639,000000	8,830068
638,000000	8,833243
637,000000	8,815131
636,000000	8,758385
635,000000	8,718006
634,000000	8,719450
633,000000	8,712605
632,000000	8,668103
631,000000	8,625768
630,000000	8,610472
629,000000	8,582392
628,000000	8,516469
627,000000	8,450989
626,000000	8,416393
625,000000	8,385377
624,000000	8,335031
623,000000	8,290426
622,000000	8,263265
621,000000	8,210648
620,000000	8,099689
619,000000	7,966977
618,000000	7,871755
617,000000	7,831499
616,000000	7,828745
615,000000	7,841205
614,000000	7,840564
613,000000	7,801445
612,000000	7,733090
611,000000	7,669546
610,000000	7,617233
609,000000	7,551046
608,000000	7,467174
607,000000	7,393816
606,000000	7,343290
605,000000	7,297929
604,000000	7,251299
603,000000	7,215835
602,000000	7,185982
601,000000	7,139956
600,000000	7,084544
599,000000	7,048673
598,000000	7,029950
597,000000	6,995201
596,000000	6,937403
595,000000	6,880981
594,000000	6,828980
593,000000	6,761057
592,000000	6,686831
591,000000	6,644395
590,000000	6,634152
589,000000	6,611652
588,000000	6,555603
587,000000	6,492795
586,000000	6,442553
585,000000	6,389320
584,000000	6,323554
583,000000	6,260952
582,000000	6,208019
581,000000	6,151955
580,000000	6,093525
579,000000	6,045723
578,000000	5,997902
577,000000	5,928250
576,000000	5,853938
575,000000	5,814170
574,000000	5,802494
573,000000	5,769747
572,000000	5,701448
571,000000	5,633370
570,000000	5,583656
569,000000	5,530446
568,000000	5,467567
567,000000	5,422599
566,000000	5,400386
565,000000	5,367716
564,000000	5,311681
563,000000	5,261342
562,000000	5,230386
561,000000	5,193258
560,000000	5,137075
559,000000	5,085851
558,000000	5,051248
557,000000	5,009940
556,000000	4,952619
555,000000	4,905117
554,000000	4,878816
553,000000	4,846428
552,000000	4,792699
551,000000	4,741133
550,000000	4,707922
549,000000	4,672701
548,000000	4,621559
547,000000	4,575436
546,000000	4,550516
545,000000	4,529990
544,000000	4,499031
543,000000	4,470249
542,000000	4,451017
541,000000	4,424354
540,000000	4,382817
539,000000	4,345772
538,000000	4,321463
537,000000	4,290718
536,000000	4,246015
535,000000	4,208939
534,000000	4,188048
533,000000	4,160397
532,000000	4,115333
531,000000	4,075056
530,000000	4,048387
529,000000	4,004637
528,000000	3,924398
527,000000	3,838736
526,000000	3,789065
525,000000	3,774803
524,000000	3,768193
523,000000	3,752400
522,000000	3,720627
521,000000	3,665546
520,000000	3,594558
519,000000	3,534254
518,000000	3,500465
517,000000	3,484178
516,000000	3,476433
515,000000	3,479982
514,000000	3,485749
513,000000	3,471886
512,000000	3,438430
511,000000	3,410704
510,000000	3,394298
509,000000	3,365380
508,000000	3,318802
507,000000	3,284941
506,000000	3,276204
505,000000	3,258612
504,000000	3,206218
503,000000	3,147006
502,000000	3,123237
501,000000	3,132208
500,000000	3,140158
499,000000	3,130772
498,000000	3,110024
497,000000	3,081407
496,000000	3,043994
495,000000	3,003205
494,000000	2,962966
493,000000	2,919132
492,000000	2,874053
491,000000	2,840656
490,000000	2,819783
489,000000	2,792790
488,000000	2,748213
487,000000	2,697032
486,000000	2,650279
485,000000	2,604508
484,000000	2,559607
483,000000	2,527289
482,000000	2,508176
481,000000	2,483532
480,000000	2,443136
479,000000	2,400338
478,000000	2,367417
477,000000	2,335724
476,000000	2,292075
475,000000	2,235889
474,000000	2,173403
473,000000	2,114676
472,000000	2,078898
471,000000	2,077449
470,000000	2,088782
469,000000	2,077799
468,000000	2,045405
467,000000	2,025251
466,000000	2,027106
465,000000	2,021509
464,000000	1,991751
463,000000	1,961531
462,000000	1,948565
461,000000	1,928340
460,000000	1,872986
459,000000	1,802016
458,000000	1,763512
457,000000	1,777818
456,000000	1,821690
455,000000	1,857425
454,000000	1,863839
453,000000	1,847455
452,000000	1,832744
451,000000	1,834141
450,000000	1,837076
449,000000	1,820182
448,000000	1,789578
447,000000	1,767873
446,000000	1,755090
445,000000	1,730295
444,000000	1,692739
443,000000	1,667677
442,000000	1,666222
441,000000	1,669953
440,000000	1,661483
439,000000	1,642061
438,000000	1,613791
437,000000	1,575350
436,000000	1,539938
435,000000	1,526180
434,000000	1,525567
433,000000	1,510474
432,000000	1,477731
431,000000	1,451387
430,000000	1,438153
429,000000	1,417561
428,000000	1,381432
427,000000	1,344729
426,000000	1,311418
425,000000	1,268651
424,000000	1,220962
423,000000	1,185836
422,000000	1,148349
421,000000	1,071231
420,000000	0,967278
419,000000	0,907907
418,000000	0,932961
417,000000	0,996615
416,000000	1,032031
415,000000	1,028245
414,000000	1,010801
413,000000	0,987650
412,000000	0,953985
411,000000	0,920782
410,000000	0,899671
409,000000	0,879458
408,000000	0,847502
407,000000	0,814424
406,000000	0,792581
405,000000	0,771807
404,000000	0,739979
403,000000	0,704692
402,000000	0,671282
401,000000	0,624680
400,000000	0,558325
399,000000	0,497787
398,000000	0,469180
397,000000	0,464365
396,000000	0,461087
395,000000	0,456901
394,000000	0,458961
393,000000	0,460046
392,000000	0,449961
391,000000	0,434604
390,000000	0,422211
389,000000	0,406245
388,000000	0,380226
387,000000	0,353061
386,000000	0,333294
385,000000	0,315762
384,000000	0,297691
383,000000	0,287905
382,000000	0,286556
381,000000	0,277753
380,000000	0,255191
379,000000	0,232527
378,000000	0,215863
377,000000	0,192647
376,000000	0,161736
375,000000	0,145091
374,000000	0,151785
373,000000	0,159752
372,000000	0,150923
371,000000	0,137680
370,000000	0,134423
369,000000	0,131844
368,000000	0,119303
367,000000	0,107076
366,000000	0,104485
365,000000	0,100446
364,000000	0,086910
363,000000	0,076672
362,000000	0,078020
361,000000	0,076955
360,000000	0,063676
359,000000	0,051485
358,000000	0,050676
357,000000	0,048934
356,000000	0,036253
355,000000	0,026063
354,000000	0,027835
353,000000	0,028437
352,000000	0,018847
351,000000	0,013821
350,000000	0,019994
349,000000	0,025970
348,000000	0,021071
347,000000	0,015737
346,000000	0,018497
345,000000	0,019876
344,000000	0,009926
343,000000	0,003640
342,000000	0,009020
341,000000	0,013612
340,000000	0,006105
339,000000	0,002400
338,000000	0,007715
337,000000	0,012493
336,000000	0,008440
335,000000	0,007158
334,000000	0,003181
333,000000	0,006120
332,000000	0,001763
331,000000	0,007181
330,000000	0,004826
329,000000	0,008998
328,000000	0,002006
327,000000	0,007117
326,000000	0,002284
325,000000	0,005192
324,000000	0,007132
323,000000	0,008599
322,000000	0,000723
321,000000	0,007742
320,000000	0,001873
319,000000	0,002636
318,000000	0,005502
317,000000	0,010499
316,000000	0,016118
315,000000	0,029614
314,000000	0,029702
313,000000	0,021078
312,000000	0,012470
311,000000	0,009226
310,000000	0,001824
309,000000	0,004593
308,000000	0,003579
307,000000	0,006218
306,000000	0,002266
305,000000	0,006786
304,000000	0,001687
303,000000	0,007020
302,000000	0,003700
301,000000	0,004270
300,000000	0,003704
