PE IR       SUBTECH     SPECTRUM    ASCII       PEDS        4.00        
   -1
glass.ASC
25/06/17
09:57:36.00
25/06/17
09:57:36.00
Praktikum
res 4
300,000000
#HDR
-1
-1
#GR
cm-1
EGY
1.0
0.0
4000,000000
-1,000000
3701
8
37,356499
0,000115
#DATA
4000,000000	34,931072
3999,000000	34,932361
3998,000000	34,920507
3997,000000	34,901951
3996,000000	34,889431
3995,000000	34,890011
3994,000000	34,897833
3993,000000	34,903236
3992,000000	34,907447
3991,000000	34,923247
3990,000000	34,959072
3989,000000	35,006799
3988,000000	35,048213
3987,000000	35,070796
3986,000000	35,074685
3985,000000	35,067971
3984,000000	35,060507
3983,000000	35,061135
3982,000000	35,074281
3981,000000	35,094744
3980,000000	35,107945
3979,000000	35,099123
3978,000000	35,065702
3977,000000	35,021419
3976,000000	34,987774
3975,000000	34,980098
3974,000000	34,998426
3973,000000	35,030328
3972,000000	35,062820
3971,000000	35,092447
3970,000000	35,125645
3969,000000	35,169500
3968,000000	35,219523
3967,000000	35,254865
3966,000000	35,249028
3965,000000	35,192666
3964,000000	35,110462
3963,000000	35,049758
3962,000000	35,044611
3961,000000	35,089310
3960,000000	35,148867
3959,000000	35,193422
3958,000000	35,219422
3957,000000	35,238611
3956,000000	35,253349
3955,000000	35,245784
3954,000000	35,186574
3953,000000	35,054302
3952,000000	34,857339
3951,000000	34,648807
3950,000000	34,514291
3949,000000	34,519889
3948,000000	34,645872
3947,000000	34,773105
3946,000000	34,771164
3945,000000	34,624855
3944,000000	34,472137
3943,000000	34,488403
3942,000000	34,719751
3941,000000	35,048450
3940,000000	35,319627
3939,000000	35,467049
3938,000000	35,500151
3937,000000	35,409639
3936,000000	35,151667
3935,000000	34,741155
3934,000000	34,314792
3933,000000	34,066002
3932,000000	34,107905
3931,000000	34,396681
3930,000000	34,759271
3929,000000	34,988930
3928,000000	34,969355
3927,000000	34,757513
3926,000000	34,541694
3925,000000	34,485608
3924,000000	34,583570
3923,000000	34,676666
3922,000000	34,604690
3921,000000	34,335736
3920,000000	33,979560
3919,000000	33,717687
3918,000000	33,720728
3917,000000	34,058341
3916,000000	34,638083
3915,000000	35,243971
3914,000000	35,676497
3913,000000	35,883937
3912,000000	35,946329
3911,000000	35,937260
3910,000000	35,811615
3909,000000	35,421249
3908,000000	34,638118
3907,000000	33,495780
3906,000000	32,241036
3905,000000	31,222183
3904,000000	30,666686
3903,000000	30,557130
3902,000000	30,743615
3901,000000	31,159956
3900,000000	31,876200
3899,000000	32,910523
3898,000000	34,057219
3897,000000	34,942347
3896,000000	35,240140
3895,000000	34,854543
3894,000000	33,999478
3893,000000	33,166967
3892,000000	32,879652
3891,000000	33,261041
3890,000000	33,817542
3889,000000	33,848450
3888,000000	33,156023
3887,000000	32,300100
3886,000000	32,013242
3885,000000	32,428286
3884,000000	32,995986
3883,000000	33,150407
3882,000000	32,932824
3881,000000	32,890940
3880,000000	33,413222
3879,000000	34,268268
3878,000000	34,827033
3877,000000	34,706026
3876,000000	34,110535
3875,000000	33,483074
3874,000000	32,940455
3873,000000	32,239535
3872,000000	31,327375
3871,000000	30,669893
3870,000000	30,793798
3869,000000	31,596967
3868,000000	32,374597
3867,000000	32,566338
3866,000000	32,302362
3865,000000	32,141907
3864,000000	32,439787
3863,000000	33,120319
3862,000000	33,912532
3861,000000	34,591259
3860,000000	34,936726
3859,000000	34,612445
3858,000000	33,250591
3857,000000	30,780214
3856,000000	27,767155
3855,000000	25,370254
3854,000000	24,727202
3853,000000	26,167465
3852,000000	28,976261
3851,000000	31,948521
3850,000000	34,199924
3849,000000	35,475884
3848,000000	35,906540
3847,000000	35,695342
3846,000000	35,074945
3845,000000	34,327179
3844,000000	33,658848
3843,000000	33,048213
3842,000000	32,300167
3841,000000	31,305083
3840,000000	30,258718
3839,000000	29,600019
3838,000000	29,695972
3837,000000	30,520737
3836,000000	31,644364
3835,000000	32,572058
3834,000000	33,123147
3833,000000	33,489526
3832,000000	33,937406
3831,000000	34,497332
3830,000000	34,950552
3829,000000	35,112354
3828,000000	35,058056
3827,000000	34,985201
3826,000000	34,841050
3825,000000	34,232436
3824,000000	32,908986
3823,000000	31,315526
3822,000000	30,390333
3821,000000	30,634639
3820,000000	31,495338
3819,000000	31,951982
3818,000000	31,664724
3817,000000	31,337459
3816,000000	31,868774
3815,000000	33,361542
3814,000000	35,114576
3813,000000	36,355078
3812,000000	36,749106
3811,000000	36,293835
3810,000000	35,144742
3809,000000	33,729668
3808,000000	32,754000
3807,000000	32,682473
3806,000000	33,153577
3805,000000	33,214239
3804,000000	32,336157
3803,000000	31,095181
3802,000000	30,617280
3801,000000	31,383026
3800,000000	32,791212
3799,000000	33,902209
3798,000000	34,410637
3797,000000	34,717201
3796,000000	35,264467
3795,000000	36,044380
3794,000000	36,748036
3793,000000	37,162150
3792,000000	37,310483
3791,000000	37,322633
3790,000000	37,278527
3789,000000	37,169928
3788,000000	36,962474
3787,000000	36,696481
3786,000000	36,503906
3785,000000	36,480450
3784,000000	36,523988
3783,000000	36,387314
3782,000000	35,955939
3781,000000	35,445780
3780,000000	35,253559
3779,000000	35,585264
3778,000000	36,269746
3777,000000	36,938400
3776,000000	37,327212
3775,000000	37,356499
3774,000000	36,994891
3773,000000	36,228569
3772,000000	35,245655
3771,000000	34,486797
3770,000000	34,303361
3769,000000	34,590398
3768,000000	34,934181
3767,000000	35,136421
3766,000000	35,381169
3765,000000	35,818332
3764,000000	36,193981
3763,000000	36,105319
3762,000000	35,499740
3761,000000	34,752887
3760,000000	34,300349
3759,000000	34,315048
3758,000000	34,643439
3757,000000	34,858804
3756,000000	34,427597
3755,000000	33,069892
3754,000000	31,043292
3753,000000	29,020296
3752,000000	27,693434
3751,000000	27,469489
3750,000000	28,276094
3749,000000	29,412684
3748,000000	29,808527
3747,000000	28,919494
3746,000000	27,484264
3745,000000	27,026545
3744,000000	28,369110
3743,000000	30,838734
3742,000000	33,004266
3741,000000	33,909103
3740,000000	33,481578
3739,000000	32,143957
3738,000000	30,480725
3737,000000	29,139380
3736,000000	28,576180
3735,000000	28,777752
3734,000000	29,435123
3733,000000	30,381782
3732,000000	31,619315
3731,000000	32,934850
3730,000000	33,817885
3729,000000	33,944827
3728,000000	33,550407
3727,000000	33,157693
3726,000000	33,052378
3725,000000	33,158562
3724,000000	33,332094
3723,000000	33,576532
3722,000000	33,957558
3721,000000	34,459336
3720,000000	34,997276
3719,000000	35,499959
3718,000000	35,877927
3717,000000	35,918174
3716,000000	35,328169
3715,000000	34,012520
3714,000000	32,319883
3713,000000	30,927373
3712,000000	30,399783
3711,000000	30,830958
3710,000000	31,900723
3709,000000	33,177488
3708,000000	34,313276
3707,000000	35,055710
3706,000000	35,233130
3705,000000	34,846056
3704,000000	34,143464
3703,000000	33,551869
3702,000000	33,440764
3701,000000	33,858621
3700,000000	34,497809
3699,000000	34,968363
3698,000000	35,124286
3697,000000	35,070469
3696,000000	34,874479
3695,000000	34,404135
3694,000000	33,500070
3693,000000	32,189864
3692,000000	30,685878
3691,000000	29,315089
3690,000000	28,516349
3689,000000	28,710791
3688,000000	29,932990
3687,000000	31,638061
3686,000000	33,071938
3685,000000	33,826987
3684,000000	33,961632
3683,000000	33,691152
3682,000000	33,155262
3681,000000	32,401599
3680,000000	31,350980
3679,000000	29,805770
3678,000000	27,809937
3677,000000	26,012930
3676,000000	25,322037
3675,000000	25,931512
3674,000000	26,943488
3673,000000	27,245004
3672,000000	26,657502
3671,000000	26,023207
3670,000000	26,213077
3669,000000	27,294127
3668,000000	28,665576
3667,000000	29,715918
3666,000000	30,216293
3665,000000	30,261428
3664,000000	30,053621
3663,000000	29,764264
3662,000000	29,451789
3661,000000	29,024728
3660,000000	28,317548
3659,000000	27,290911
3658,000000	26,205897
3657,000000	25,505425
3656,000000	25,393258
3655,000000	25,517380
3654,000000	25,184122
3653,000000	24,002057
3652,000000	22,267017
3651,000000	20,701243
3650,000000	19,886950
3649,000000	19,968792
3648,000000	20,756804
3647,000000	21,901459
3646,000000	22,988544
3645,000000	23,681745
3644,000000	23,898887
3643,000000	23,803386
3642,000000	23,594552
3641,000000	23,351948
3640,000000	23,080074
3639,000000	22,792182
3638,000000	22,481405
3637,000000	22,097450
3636,000000	21,633188
3635,000000	21,160314
3634,000000	20,673480
3633,000000	19,966692
3632,000000	18,838354
3631,000000	17,470701
3630,000000	16,456675
3629,000000	16,326940
3628,000000	17,057318
3627,000000	18,110176
3626,000000	18,912008
3625,000000	19,221455
3624,000000	19,076560
3623,000000	18,581008
3622,000000	17,854957
3621,000000	17,116379
3620,000000	16,644279
3619,000000	16,584171
3618,000000	16,811656
3617,000000	17,034003
3616,000000	17,035842
3615,000000	16,824580
3614,000000	16,553752
3613,000000	16,334027
3612,000000	16,140310
3611,000000	15,903983
3610,000000	15,663112
3609,000000	15,566703
3608,000000	15,713175
3607,000000	16,024960
3606,000000	16,307854
3605,000000	16,415282
3604,000000	16,330024
3603,000000	16,123678
3602,000000	15,890250
3601,000000	15,704388
3600,000000	15,584999
3599,000000	15,482407
3598,000000	15,331898
3597,000000	15,134182
3596,000000	14,966577
3595,000000	14,905331
3594,000000	14,945314
3593,000000	14,986222
3592,000000	14,886032
3591,000000	14,555993
3590,000000	14,059794
3589,000000	13,617013
3588,000000	13,458371
3587,000000	13,643614
3586,000000	14,028537
3585,000000	14,403275
3584,000000	14,639175
3583,000000	14,721029
3582,000000	14,696473
3581,000000	14,627692
3580,000000	14,561835
3579,000000	14,512113
3578,000000	14,465220
3577,000000	14,413512
3576,000000	14,368518
3575,000000	14,339116
3574,000000	14,310202
3573,000000	14,241746
3572,000000	14,073861
3571,000000	13,750823
3570,000000	13,287015
3569,000000	12,819597
3568,000000	12,546911
3567,000000	12,578469
3566,000000	12,848015
3565,000000	13,183109
3564,000000	13,439708
3563,000000	13,572027
3562,000000	13,610643
3561,000000	13,612978
3560,000000	13,622989
3559,000000	13,648086
3558,000000	13,663230
3557,000000	13,638744
3556,000000	13,563882
3555,000000	13,451168
3554,000000	13,335266
3553,000000	13,263225
3552,000000	13,256458
3551,000000	13,274057
3550,000000	13,238903
3549,000000	13,117824
3548,000000	12,961057
3547,000000	12,853483
3546,000000	12,841933
3545,000000	12,916496
3544,000000	13,036455
3543,000000	13,154644
3542,000000	13,232496
3541,000000	13,254238
3540,000000	13,228725
3539,000000	13,174696
3538,000000	13,113325
3537,000000	13,071572
3536,000000	13,069348
3535,000000	13,093776
3534,000000	13,103166
3533,000000	13,067531
3532,000000	12,992423
3531,000000	12,900457
3530,000000	12,809408
3529,000000	12,736053
3528,000000	12,696262
3527,000000	12,685619
3526,000000	12,679893
3525,000000	12,669544
3524,000000	12,676895
3523,000000	12,722101
3522,000000	12,788746
3521,000000	12,841595
3520,000000	12,866902
3519,000000	12,876074
3518,000000	12,880388
3517,000000	12,880731
3516,000000	12,876006
3515,000000	12,863958
3514,000000	12,835890
3513,000000	12,784726
3512,000000	12,719818
3511,000000	12,666201
3510,000000	12,646983
3509,000000	12,665272
3508,000000	12,695916
3507,000000	12,697013
3506,000000	12,644495
3505,000000	12,562332
3504,000000	12,507453
3503,000000	12,517065
3502,000000	12,578070
3501,000000	12,648023
3500,000000	12,693657
3499,000000	12,704875
3498,000000	12,690494
3497,000000	12,672290
3496,000000	12,671793
3495,000000	12,691243
3494,000000	12,712616
3493,000000	12,719947
3492,000000	12,712384
3491,000000	12,694111
3490,000000	12,667348
3489,000000	12,642134
3488,000000	12,635218
3487,000000	12,647498
3486,000000	12,655386
3485,000000	12,637444
3484,000000	12,600858
3483,000000	12,572388
3482,000000	12,571267
3481,000000	12,598939
3480,000000	12,643486
3479,000000	12,684066
3478,000000	12,701473
3477,000000	12,695428
3476,000000	12,685641
3475,000000	12,688645
3474,000000	12,701847
3473,000000	12,714992
3472,000000	12,725056
3471,000000	12,731760
3470,000000	12,730692
3469,000000	12,721835
3468,000000	12,715304
3467,000000	12,718073
3466,000000	12,723047
3465,000000	12,720732
3464,000000	12,714343
3463,000000	12,714317
3462,000000	12,724509
3461,000000	12,741783
3460,000000	12,762467
3459,000000	12,781937
3458,000000	12,794707
3457,000000	12,801463
3456,000000	12,809727
3455,000000	12,822585
3454,000000	12,834542
3453,000000	12,840918
3452,000000	12,840239
3451,000000	12,824192
3450,000000	12,781941
3449,000000	12,724050
3448,000000	12,686788
3447,000000	12,697261
3446,000000	12,742897
3445,000000	12,789215
3444,000000	12,818984
3443,000000	12,840774
3442,000000	12,865936
3441,000000	12,893907
3440,000000	12,919249
3439,000000	12,939846
3438,000000	12,955814
3437,000000	12,968162
3436,000000	12,979414
3435,000000	12,990852
3434,000000	13,000580
3433,000000	13,008199
3432,000000	13,018041
3431,000000	13,033607
3430,000000	13,052605
3429,000000	13,071472
3428,000000	13,090276
3427,000000	13,108350
3426,000000	13,119752
3425,000000	13,118467
3424,000000	13,105850
3423,000000	13,090309
3422,000000	13,083072
3421,000000	13,094992
3420,000000	13,130145
3419,000000	13,178699
3418,000000	13,222132
3417,000000	13,249885
3416,000000	13,266244
3415,000000	13,279522
3414,000000	13,291855
3413,000000	13,302920
3412,000000	13,315289
3411,000000	13,330283
3410,000000	13,344527
3409,000000	13,355648
3408,000000	13,366267
3407,000000	13,378038
3406,000000	13,387769
3405,000000	13,393883
3404,000000	13,401169
3403,000000	13,414083
3402,000000	13,429767
3401,000000	13,442291
3400,000000	13,450306
3399,000000	13,457216
3398,000000	13,466737
3397,000000	13,480179
3396,000000	13,495099
3395,000000	13,506775
3394,000000	13,515327
3393,000000	13,530011
3392,000000	13,559431
3391,000000	13,597807
3390,000000	13,628999
3389,000000	13,644837
3388,000000	13,651341
3387,000000	13,656935
3386,000000	13,664403
3385,000000	13,676280
3384,000000	13,696871
3383,000000	13,724121
3382,000000	13,748457
3381,000000	13,764534
3380,000000	13,777030
3379,000000	13,791216
3378,000000	13,805805
3377,000000	13,818914
3376,000000	13,833088
3375,000000	13,849746
3374,000000	13,865461
3373,000000	13,877882
3372,000000	13,888921
3371,000000	13,898550
3370,000000	13,902803
3369,000000	13,901855
3368,000000	13,902984
3367,000000	13,911407
3366,000000	13,924496
3365,000000	13,938590
3364,000000	13,954619
3363,000000	13,973410
3362,000000	13,992146
3361,000000	14,009144
3360,000000	14,026054
3359,000000	14,042363
3358,000000	14,054458
3357,000000	14,063343
3356,000000	14,076127
3355,000000	14,095952
3354,000000	14,117437
3353,000000	14,135548
3352,000000	14,152024
3351,000000	14,169226
3350,000000	14,184685
3349,000000	14,196279
3348,000000	14,206867
3347,000000	14,219329
3346,000000	14,232183
3345,000000	14,243855
3344,000000	14,255978
3343,000000	14,269081
3342,000000	14,280169
3341,000000	14,287355
3340,000000	14,292079
3339,000000	14,295247
3338,000000	14,296982
3337,000000	14,301726
3336,000000	14,316449
3335,000000	14,340958
3334,000000	14,366429
3333,000000	14,386125
3332,000000	14,401075
3331,000000	14,413415
3330,000000	14,421838
3329,000000	14,426839
3328,000000	14,433412
3327,000000	14,444328
3326,000000	14,456720
3325,000000	14,468551
3324,000000	14,482215
3323,000000	14,498572
3322,000000	14,513768
3321,000000	14,525394
3320,000000	14,536170
3319,000000	14,548085
3318,000000	14,558293
3317,000000	14,564374
3316,000000	14,568391
3315,000000	14,572969
3314,000000	14,577894
3313,000000	14,582661
3312,000000	14,588038
3311,000000	14,593836
3310,000000	14,600116
3309,000000	14,610868
3308,000000	14,629978
3307,000000	14,653016
3306,000000	14,670191
3305,000000	14,678951
3304,000000	14,686413
3303,000000	14,697295
3302,000000	14,707553
3301,000000	14,712585
3300,000000	14,714461
3299,000000	14,717592
3298,000000	14,722928
3297,000000	14,729443
3296,000000	14,736030
3295,000000	14,739968
3294,000000	14,739378
3293,000000	14,738516
3292,000000	14,744569
3291,000000	14,757767
3290,000000	14,771179
3289,000000	14,781191
3288,000000	14,790434
3287,000000	14,799458
3286,000000	14,803895
3285,000000	14,802798
3284,000000	14,801900
3283,000000	14,805060
3282,000000	14,809463
3281,000000	14,811890
3280,000000	14,812839
3279,000000	14,811691
3278,000000	14,805200
3277,000000	14,794562
3276,000000	14,787372
3275,000000	14,789086
3274,000000	14,797903
3273,000000	14,810443
3272,000000	14,825849
3271,000000	14,841461
3270,000000	14,851654
3269,000000	14,854599
3268,000000	14,854710
3267,000000	14,855371
3266,000000	14,855159
3265,000000	14,853433
3264,000000	14,853099
3263,000000	14,854886
3262,000000	14,855010
3261,000000	14,851885
3260,000000	14,848837
3259,000000	14,847415
3258,000000	14,843973
3257,000000	14,836629
3256,000000	14,829938
3255,000000	14,829141
3254,000000	14,834303
3253,000000	14,842583
3252,000000	14,851652
3251,000000	14,858243
3250,000000	14,858191
3249,000000	14,850489
3248,000000	14,838195
3247,000000	14,824792
3246,000000	14,813903
3245,000000	14,811115
3244,000000	14,819275
3243,000000	14,831749
3242,000000	14,837743
3241,000000	14,834909
3240,000000	14,830115
3239,000000	14,827624
3238,000000	14,824705
3237,000000	14,820013
3236,000000	14,816902
3235,000000	14,816038
3234,000000	14,812914
3233,000000	14,806036
3232,000000	14,799733
3231,000000	14,796225
3230,000000	14,792441
3229,000000	14,787845
3228,000000	14,787213
3227,000000	14,791992
3226,000000	14,796102
3225,000000	14,794283
3224,000000	14,787637
3223,000000	14,778033
3222,000000	14,764862
3221,000000	14,751309
3220,000000	14,745308
3219,000000	14,748516
3218,000000	14,751164
3217,000000	14,744340
3216,000000	14,731567
3215,000000	14,722533
3214,000000	14,719974
3213,000000	14,718932
3212,000000	14,715389
3211,000000	14,710057
3210,000000	14,705911
3209,000000	14,705642
3208,000000	14,709633
3207,000000	14,714005
3206,000000	14,713464
3205,000000	14,707608
3204,000000	14,700713
3203,000000	14,694305
3202,000000	14,684609
3201,000000	14,669361
3200,000000	14,652314
3199,000000	14,638805
3198,000000	14,630931
3197,000000	14,628705
3196,000000	14,631082
3195,000000	14,634072
3194,000000	14,632684
3193,000000	14,626767
3192,000000	14,620822
3191,000000	14,616559
3190,000000	14,610542
3189,000000	14,600295
3188,000000	14,587688
3187,000000	14,574890
3186,000000	14,562426
3185,000000	14,552502
3184,000000	14,547988
3183,000000	14,545935
3182,000000	14,538007
3181,000000	14,520761
3180,000000	14,500703
3179,000000	14,486720
3178,000000	14,481494
3177,000000	14,482185
3176,000000	14,484614
3175,000000	14,484348
3174,000000	14,478263
3173,000000	14,467600
3172,000000	14,456496
3171,000000	14,446404
3170,000000	14,435766
3169,000000	14,424989
3168,000000	14,416620
3167,000000	14,410057
3166,000000	14,401579
3165,000000	14,390652
3164,000000	14,380718
3163,000000	14,372771
3162,000000	14,363753
3161,000000	14,352498
3160,000000	14,341591
3159,000000	14,332019
3158,000000	14,321499
3157,000000	14,309576
3156,000000	14,298836
3155,000000	14,289685
3154,000000	14,279390
3153,000000	14,267620
3152,000000	14,257384
3151,000000	14,249209
3150,000000	14,239979
3149,000000	14,228810
3148,000000	14,218273
3147,000000	14,208495
3146,000000	14,196165
3145,000000	14,181106
3144,000000	14,167820
3143,000000	14,158415
3142,000000	14,149637
3141,000000	14,138963
3140,000000	14,128110
3139,000000	14,118228
3138,000000	14,106642
3137,000000	14,090664
3136,000000	14,070669
3135,000000	14,048676
3134,000000	14,028257
3133,000000	14,015439
3132,000000	14,013166
3131,000000	14,014463
3130,000000	14,007775
3129,000000	13,990519
3128,000000	13,970656
3127,000000	13,953962
3126,000000	13,937514
3125,000000	13,918229
3124,000000	13,899804
3123,000000	13,886748
3122,000000	13,877338
3121,000000	13,866861
3120,000000	13,853436
3119,000000	13,837430
3118,000000	13,819554
3117,000000	13,802621
3116,000000	13,790961
3115,000000	13,785323
3114,000000	13,781478
3113,000000	13,775588
3112,000000	13,767292
3111,000000	13,756872
3110,000000	13,743939
3109,000000	13,730201
3108,000000	13,718665
3107,000000	13,708467
3106,000000	13,694729
3105,000000	13,674764
3104,000000	13,651023
3103,000000	13,627786
3102,000000	13,609074
3101,000000	13,598407
3100,000000	13,594793
3099,000000	13,589584
3098,000000	13,574581
3097,000000	13,553609
3096,000000	13,538953
3095,000000	13,535645
3094,000000	13,536346
3093,000000	13,533064
3092,000000	13,525689
3091,000000	13,516622
3090,000000	13,504795
3089,000000	13,489505
3088,000000	13,473974
3087,000000	13,460684
3086,000000	13,447583
3085,000000	13,431863
3084,000000	13,413609
3083,000000	13,393671
3082,000000	13,372606
3081,000000	13,353503
3080,000000	13,341020
3079,000000	13,335343
3078,000000	13,331364
3077,000000	13,325231
3076,000000	13,317262
3075,000000	13,307673
3074,000000	13,294827
3073,000000	13,279153
3072,000000	13,263176
3071,000000	13,246132
3070,000000	13,223823
3069,000000	13,195636
3068,000000	13,166825
3067,000000	13,142584
3066,000000	13,124537
3065,000000	13,113601
3064,000000	13,110200
3063,000000	13,110241
3062,000000	13,106508
3061,000000	13,095893
3060,000000	13,080742
3059,000000	13,063170
3058,000000	13,043963
3057,000000	13,027294
3056,000000	13,018956
3055,000000	13,017789
3054,000000	13,015248
3053,000000	13,005521
3052,000000	12,990320
3051,000000	12,972990
3050,000000	12,954820
3049,000000	12,938851
3048,000000	12,929632
3047,000000	12,926190
3046,000000	12,921517
3045,000000	12,911728
3044,000000	12,899707
3043,000000	12,887892
3042,000000	12,874383
3041,000000	12,858672
3040,000000	12,843995
3039,000000	12,830666
3038,000000	12,813929
3037,000000	12,791857
3036,000000	12,768884
3035,000000	12,747931
3034,000000	12,726172
3033,000000	12,703013
3032,000000	12,685300
3031,000000	12,678422
3030,000000	12,677233
3029,000000	12,671634
3028,000000	12,657747
3027,000000	12,638684
3026,000000	12,618030
3025,000000	12,597470
3024,000000	12,578312
3023,000000	12,560751
3022,000000	12,542878
3021,000000	12,523216
3020,000000	12,502715
3019,000000	12,482956
3018,000000	12,464947
3017,000000	12,450554
3016,000000	12,441738
3015,000000	12,437303
3014,000000	12,434233
3013,000000	12,433076
3012,000000	12,437521
3011,000000	12,447412
3010,000000	12,456725
3009,000000	12,460255
3008,000000	12,457954
3007,000000	12,451610
3006,000000	12,442190
3005,000000	12,432091
3004,000000	12,424831
3003,000000	12,420059
3002,000000	12,413473
3001,000000	12,403378
3000,000000	12,392891
2999,000000	12,383791
2998,000000	12,373421
2997,000000	12,359920
2996,000000	12,345731
2995,000000	12,333397
2994,000000	12,322094
2993,000000	12,310579
2992,000000	12,299294
2991,000000	12,287665
2990,000000	12,273669
2989,000000	12,257966
2988,000000	12,244049
2987,000000	12,232498
2986,000000	12,219621
2985,000000	12,203459
2984,000000	12,186296
2983,000000	12,169442
2982,000000	12,150769
2981,000000	12,129625
2980,000000	12,109081
2979,000000	12,090557
2978,000000	12,070919
2977,000000	12,047661
2976,000000	12,022579
2975,000000	11,997671
2974,000000	11,971629
2973,000000	11,942904
2972,000000	11,912275
2971,000000	11,880031
2970,000000	11,844753
2969,000000	11,807181
2968,000000	11,771163
2967,000000	11,738676
2966,000000	11,707742
2965,000000	11,677335
2964,000000	11,649853
2963,000000	11,626692
2962,000000	11,605646
2961,000000	11,585159
2960,000000	11,567112
2959,000000	11,553012
2958,000000	11,541361
2957,000000	11,530808
2956,000000	11,522034
2955,000000	11,514474
2954,000000	11,505292
2953,000000	11,493685
2952,000000	11,482221
2951,000000	11,472003
2950,000000	11,460530
2949,000000	11,446105
2948,000000	11,430041
2947,000000	11,412502
2946,000000	11,390756
2945,000000	11,363869
2944,000000	11,334899
2943,000000	11,305961
2942,000000	11,275212
2941,000000	11,241158
2940,000000	11,205885
2939,000000	11,171592
2938,000000	11,137671
2937,000000	11,103797
2936,000000	11,072104
2935,000000	11,043807
2934,000000	11,017028
2933,000000	10,990202
2932,000000	10,964318
2931,000000	10,939795
2930,000000	10,914893
2929,000000	10,889411
2928,000000	10,866670
2927,000000	10,849786
2926,000000	10,839056
2925,000000	10,834760
2924,000000	10,838886
2923,000000	10,852102
2922,000000	10,872238
2921,000000	10,897331
2920,000000	10,927209
2919,000000	10,960673
2918,000000	10,994923
2917,000000	11,029240
2916,000000	11,065643
2915,000000	11,104410
2914,000000	11,142326
2913,000000	11,177006
2912,000000	11,209077
2911,000000	11,238763
2910,000000	11,264075
2909,000000	11,284205
2908,000000	11,301231
2907,000000	11,316736
2906,000000	11,330156
2905,000000	11,341709
2904,000000	11,353443
2903,000000	11,365853
2902,000000	11,376978
2901,000000	11,386154
2900,000000	11,395111
2899,000000	11,404247
2898,000000	11,411626
2897,000000	11,416960
2896,000000	11,422763
2895,000000	11,430026
2894,000000	11,436562
2893,000000	11,441077
2892,000000	11,445200
2891,000000	11,449954
2890,000000	11,453872
2889,000000	11,456115
2888,000000	11,457991
2887,000000	11,459972
2886,000000	11,460570
2885,000000	11,459381
2884,000000	11,457832
2883,000000	11,455959
2882,000000	11,451855
2881,000000	11,445164
2880,000000	11,437476
2879,000000	11,428791
2878,000000	11,417552
2877,000000	11,404714
2876,000000	11,393294
2875,000000	11,383013
2874,000000	11,369966
2873,000000	11,352700
2872,000000	11,334017
2871,000000	11,315468
2870,000000	11,294814
2869,000000	11,270588
2868,000000	11,244560
2867,000000	11,217882
2866,000000	11,189300
2865,000000	11,159285
2864,000000	11,131788
2863,000000	11,109787
2862,000000	11,092804
2861,000000	11,080610
2860,000000	11,075058
2859,000000	11,076270
2858,000000	11,080962
2857,000000	11,086898
2856,000000	11,095489
2855,000000	11,108074
2854,000000	11,123261
2853,000000	11,140179
2852,000000	11,160976
2851,000000	11,187889
2850,000000	11,220612
2849,000000	11,257975
2848,000000	11,299087
2847,000000	11,341508
2846,000000	11,381482
2845,000000	11,417608
2844,000000	11,451384
2843,000000	11,483276
2842,000000	11,511665
2841,000000	11,536442
2840,000000	11,559918
2839,000000	11,582974
2838,000000	11,603910
2837,000000	11,622246
2836,000000	11,639958
2835,000000	11,657668
2834,000000	11,673404
2833,000000	11,686502
2832,000000	11,699085
2831,000000	11,712321
2830,000000	11,724765
2829,000000	11,735739
2828,000000	11,746866
2827,000000	11,758888
2826,000000	11,770304
2825,000000	11,780410
2824,000000	11,790384
2823,000000	11,800403
2822,000000	11,809091
2821,000000	11,816755
2820,000000	11,825640
2819,000000	11,836012
2818,000000	11,845566
2817,000000	11,853525
2816,000000	11,861817
2815,000000	11,871325
2814,000000	11,880675
2813,000000	11,889530
2812,000000	11,899303
2811,000000	11,909899
2810,000000	11,919469
2809,000000	11,928117
2808,000000	11,937857
2807,000000	11,948311
2806,000000	11,956718
2805,000000	11,963084
2804,000000	11,970926
2803,000000	11,981714
2802,000000	11,992777
2801,000000	12,002052
2800,000000	12,010748
2799,000000	12,019947
2798,000000	12,028620
2797,000000	12,036496
2796,000000	12,045208
2795,000000	12,055185
2794,000000	12,064969
2793,000000	12,074642
2792,000000	12,086222
2791,000000	12,099796
2790,000000	12,113057
2789,000000	12,125499
2788,000000	12,139046
2787,000000	12,153713
2786,000000	12,166966
2785,000000	12,178463
2784,000000	12,191050
2783,000000	12,205770
2782,000000	12,220063
2781,000000	12,232416
2780,000000	12,244692
2779,000000	12,258321
2778,000000	12,272090
2777,000000	12,285154
2776,000000	12,298574
2775,000000	12,312487
2774,000000	12,325337
2773,000000	12,337054
2772,000000	12,349454
2771,000000	12,362600
2770,000000	12,374514
2769,000000	12,385225
2768,000000	12,397106
2767,000000	12,410449
2766,000000	12,422840
2765,000000	12,433733
2764,000000	12,445442
2763,000000	12,458715
2762,000000	12,471592
2761,000000	12,483543
2760,000000	12,496369
2759,000000	12,510065
2758,000000	12,522328
2757,000000	12,533180
2756,000000	12,545465
2755,000000	12,559638
2754,000000	12,572728
2753,000000	12,583730
2752,000000	12,595324
2751,000000	12,608852
2750,000000	12,622258
2749,000000	12,634567
2748,000000	12,647704
2747,000000	12,662175
2746,000000	12,675574
2745,000000	12,687244
2744,000000	12,699911
2743,000000	12,714801
2742,000000	12,729513
2741,000000	12,742618
2740,000000	12,755978
2739,000000	12,770603
2738,000000	12,784530
2737,000000	12,796862
2736,000000	12,809753
2735,000000	12,824435
2734,000000	12,839252
2733,000000	12,853390
2732,000000	12,868360
2731,000000	12,884103
2730,000000	12,898014
2729,000000	12,909834
2728,000000	12,923103
2727,000000	12,939607
2726,000000	12,956597
2725,000000	12,971760
2724,000000	12,986605
2723,000000	13,002581
2722,000000	13,017993
2721,000000	13,031516
2720,000000	13,044999
2719,000000	13,060141
2718,000000	13,075773
2717,000000	13,090784
2716,000000	13,106357
2715,000000	13,123063
2714,000000	13,139109
2713,000000	13,153625
2712,000000	13,168472
2711,000000	13,184757
2710,000000	13,200884
2709,000000	13,215904
2708,000000	13,231474
2707,000000	13,248563
2706,000000	13,265616
2705,000000	13,281812
2704,000000	13,298763
2703,000000	13,317171
2702,000000	13,335214
2701,000000	13,352084
2700,000000	13,369622
2699,000000	13,388600
2698,000000	13,406842
2697,000000	13,423019
2696,000000	13,438970
2695,000000	13,456340
2694,000000	13,474183
2693,000000	13,491769
2692,000000	13,510384
2691,000000	13,530397
2690,000000	13,549723
2689,000000	13,567194
2688,000000	13,584391
2687,000000	13,602442
2686,000000	13,620117
2685,000000	13,636821
2684,000000	13,654258
2683,000000	13,673286
2682,000000	13,692175
2681,000000	13,709675
2680,000000	13,726958
2679,000000	13,744993
2678,000000	13,762939
2677,000000	13,780486
2676,000000	13,798825
2675,000000	13,818023
2674,000000	13,836492
2673,000000	13,854200
2672,000000	13,873173
2671,000000	13,893706
2670,000000	13,913479
2669,000000	13,931621
2668,000000	13,950107
2667,000000	13,969933
2666,000000	13,989460
2665,000000	14,007888
2664,000000	14,026766
2663,000000	14,046692
2662,000000	14,066007
2661,000000	14,084176
2660,000000	14,102942
2659,000000	14,122810
2658,000000	14,142008
2657,000000	14,160250
2656,000000	14,179806
2655,000000	14,201397
2654,000000	14,222796
2653,000000	14,242943
2652,000000	14,263671
2651,000000	14,285707
2650,000000	14,306870
2649,000000	14,326072
2648,000000	14,345402
2647,000000	14,366383
2646,000000	14,387679
2645,000000	14,408353
2644,000000	14,429773
2643,000000	14,452407
2642,000000	14,474185
2641,000000	14,494136
2640,000000	14,514283
2639,000000	14,536068
2638,000000	14,558117
2637,000000	14,579319
2636,000000	14,600845
2635,000000	14,623276
2634,000000	14,644950
2633,000000	14,665074
2632,000000	14,685347
2631,000000	14,706761
2630,000000	14,727850
2629,000000	14,747767
2628,000000	14,768075
2627,000000	14,789782
2626,000000	14,811679
2625,000000	14,833074
2624,000000	14,855093
2623,000000	14,877829
2622,000000	14,899404
2621,000000	14,919380
2620,000000	14,939899
2619,000000	14,962011
2618,000000	14,984026
2617,000000	15,004881
2616,000000	15,025837
2615,000000	15,047445
2614,000000	15,068272
2613,000000	15,088157
2612,000000	15,109269
2611,000000	15,132271
2610,000000	15,154707
2609,000000	15,174869
2608,000000	15,194073
2607,000000	15,213646
2606,000000	15,232978
2605,000000	15,252057
2604,000000	15,272472
2603,000000	15,294193
2602,000000	15,314713
2601,000000	15,333082
2600,000000	15,351590
2599,000000	15,371702
2598,000000	15,391706
2597,000000	15,410120
2596,000000	15,428255
2595,000000	15,447458
2594,000000	15,466862
2593,000000	15,485683
2592,000000	15,504814
2591,000000	15,524503
2590,000000	15,543350
2589,000000	15,561231
2588,000000	15,580226
2587,000000	15,601053
2586,000000	15,621473
2585,000000	15,639882
2584,000000	15,657670
2583,000000	15,676501
2582,000000	15,695972
2581,000000	15,715352
2580,000000	15,734965
2579,000000	15,754551
2578,000000	15,772899
2577,000000	15,790098
2576,000000	15,807576
2575,000000	15,825278
2574,000000	15,841765
2573,000000	15,857468
2572,000000	15,874411
2571,000000	15,892166
2570,000000	15,908011
2569,000000	15,921808
2568,000000	15,936654
2567,000000	15,953533
2566,000000	15,969555
2565,000000	15,983055
2564,000000	15,996167
2563,000000	16,010505
2562,000000	16,024341
2561,000000	16,036272
2560,000000	16,048019
2559,000000	16,061099
2558,000000	16,074069
2557,000000	16,085318
2556,000000	16,095711
2555,000000	16,106361
2554,000000	16,116650
2553,000000	16,126283
2552,000000	16,136525
2551,000000	16,147595
2550,000000	16,157638
2549,000000	16,165849
2548,000000	16,173800
2547,000000	16,182293
2546,000000	16,189855
2545,000000	16,195821
2544,000000	16,201779
2543,000000	16,208377
2542,000000	16,213871
2541,000000	16,217467
2540,000000	16,221114
2539,000000	16,226276
2538,000000	16,231736
2537,000000	16,236270
2536,000000	16,240541
2535,000000	16,244841
2534,000000	16,247690
2533,000000	16,248278
2532,000000	16,247818
2531,000000	16,247233
2530,000000	16,246243
2529,000000	16,245595
2528,000000	16,247026
2527,000000	16,249805
2526,000000	16,250514
2525,000000	16,247683
2524,000000	16,243628
2523,000000	16,240313
2522,000000	16,236701
2521,000000	16,231629
2520,000000	16,226165
2519,000000	16,221244
2518,000000	16,215672
2517,000000	16,208326
2516,000000	16,199846
2515,000000	16,190894
2514,000000	16,181070
2513,000000	16,170568
2512,000000	16,160407
2511,000000	16,150191
2510,000000	16,138307
2509,000000	16,125174
2508,000000	16,113231
2507,000000	16,102939
2506,000000	16,091790
2505,000000	16,078104
2504,000000	16,062881
2503,000000	16,046996
2502,000000	16,029838
2501,000000	16,011707
2500,000000	15,994370
2499,000000	15,978119
2498,000000	15,961130
2497,000000	15,942623
2496,000000	15,923772
2495,000000	15,904748
2494,000000	15,884081
2493,000000	15,861620
2492,000000	15,839066
2491,000000	15,816854
2490,000000	15,793537
2489,000000	15,768921
2488,000000	15,744441
2487,000000	15,720010
2486,000000	15,693927
2485,000000	15,666474
2484,000000	15,640000
2483,000000	15,614740
2482,000000	15,588185
2481,000000	15,559353
2480,000000	15,529996
2479,000000	15,500885
2478,000000	15,470600
2477,000000	15,438834
2476,000000	15,407297
2475,000000	15,376337
2474,000000	15,344298
2473,000000	15,310896
2472,000000	15,277645
2471,000000	15,244276
2470,000000	15,208540
2469,000000	15,170374
2468,000000	15,132508
2467,000000	15,096079
2466,000000	15,059481
2465,000000	15,022106
2464,000000	14,985247
2463,000000	14,948586
2462,000000	14,909870
2461,000000	14,869038
2460,000000	14,828543
2459,000000	14,788834
2458,000000	14,747620
2457,000000	14,704504
2456,000000	14,662065
2455,000000	14,621283
2454,000000	14,580052
2453,000000	14,537291
2452,000000	14,494314
2451,000000	14,451213
2450,000000	14,406157
2449,000000	14,359383
2448,000000	14,313642
2447,000000	14,269490
2446,000000	14,224415
2445,000000	14,177561
2444,000000	14,131084
2443,000000	14,085797
2442,000000	14,039852
2441,000000	13,992796
2440,000000	13,946413
2439,000000	13,900450
2438,000000	13,852074
2437,000000	13,800809
2436,000000	13,749550
2435,000000	13,699594
2434,000000	13,649137
2433,000000	13,597785
2432,000000	13,547638
2431,000000	13,498715
2430,000000	13,448146
2429,000000	13,395290
2428,000000	13,342877
2427,000000	13,291788
2426,000000	13,239694
2425,000000	13,186170
2424,000000	13,133980
2423,000000	13,083697
2422,000000	13,032210
2421,000000	12,978345
2420,000000	12,924955
2419,000000	12,873492
2418,000000	12,821531
2417,000000	12,767595
2416,000000	12,713587
2415,000000	12,660539
2414,000000	12,606744
2413,000000	12,551860
2412,000000	12,498015
2411,000000	12,445240
2410,000000	12,390742
2409,000000	12,334284
2408,000000	12,279079
2407,000000	12,225821
2406,000000	12,171282
2405,000000	12,114556
2404,000000	12,058959
2403,000000	12,005838
2402,000000	11,952189
2401,000000	11,896494
2400,000000	11,841187
2399,000000	11,787100
2398,000000	11,731426
2397,000000	11,673591
2396,000000	11,617242
2395,000000	11,563730
2394,000000	11,509190
2393,000000	11,450464
2392,000000	11,388179
2391,000000	11,320918
2390,000000	11,242700
2389,000000	11,148093
2388,000000	11,033937
2387,000000	10,893635
2386,000000	10,714112
2385,000000	10,484286
2384,000000	10,199366
2383,000000	9,857164
2382,000000	9,458354
2381,000000	9,011206
2380,000000	8,532956
2379,000000	8,039972
2378,000000	7,543695
2377,000000	7,056522
2376,000000	6,591793
2375,000000	6,155682
2374,000000	5,745774
2373,000000	5,362142
2372,000000	5,010490
2371,000000	4,693350
2370,000000	4,405909
2369,000000	4,145764
2368,000000	3,917557
2367,000000	3,721994
2366,000000	3,553269
2365,000000	3,409790
2364,000000	3,297789
2363,000000	3,218671
2362,000000	3,163165
2361,000000	3,128093
2360,000000	3,124469
2359,000000	3,161036
2358,000000	3,233839
2357,000000	3,339680
2356,000000	3,489769
2355,000000	3,697284
2354,000000	3,968358
2353,000000	4,316042
2352,000000	4,748761
2351,000000	5,209136
2350,000000	5,539513
2349,000000	5,571627
2348,000000	5,276005
2347,000000	4,804420
2346,000000	4,365498
2345,000000	4,071216
2344,000000	3,907752
2343,000000	3,814858
2342,000000	3,757333
2341,000000	3,725712
2340,000000	3,713332
2339,000000	3,710602
2338,000000	3,713937
2337,000000	3,723114
2336,000000	3,733325
2335,000000	3,734336
2334,000000	3,719095
2333,000000	3,692650
2332,000000	3,672210
2331,000000	3,677205
2330,000000	3,716137
2329,000000	3,780977
2328,000000	3,852995
2327,000000	3,913517
2326,000000	3,952833
2325,000000	3,975585
2324,000000	3,998550
2323,000000	4,040100
2322,000000	4,108210
2321,000000	4,199750
2320,000000	4,308860
2319,000000	4,429866
2318,000000	4,551612
2317,000000	4,656768
2316,000000	4,733108
2315,000000	4,783891
2314,000000	4,823999
2313,000000	4,867768
2312,000000	4,921567
2311,000000	4,984386
2310,000000	5,050787
2309,000000	5,114842
2308,000000	5,173843
2307,000000	5,228390
2306,000000	5,277965
2305,000000	5,318336
2304,000000	5,345361
2303,000000	5,359539
2302,000000	5,364858
2301,000000	5,364793
2300,000000	5,360630
2299,000000	5,352652
2298,000000	5,340569
2297,000000	5,323671
2296,000000	5,302284
2295,000000	5,278177
2294,000000	5,252811
2293,000000	5,225767
2292,000000	5,195837
2291,000000	5,162854
2290,000000	5,127447
2289,000000	5,090180
2288,000000	5,051768
2287,000000	5,012867
2286,000000	4,972550
2285,000000	4,927527
2284,000000	4,874373
2283,000000	4,812518
2282,000000	4,744498
2281,000000	4,673930
2280,000000	4,603474
2279,000000	4,534218
2278,000000	4,466043
2277,000000	4,398421
2276,000000	4,331259
2275,000000	4,264980
2274,000000	4,200052
2273,000000	4,136542
2272,000000	4,073973
2271,000000	4,011463
2270,000000	3,948484
2269,000000	3,885726
2268,000000	3,824572
2267,000000	3,765301
2266,000000	3,706492
2265,000000	3,646856
2264,000000	3,586883
2263,000000	3,527944
2262,000000	3,470488
2261,000000	3,414000
2260,000000	3,358059
2259,000000	3,302428
2258,000000	3,246620
2257,000000	3,190386
2256,000000	3,134270
2255,000000	3,078862
2254,000000	3,023926
2253,000000	2,969007
2252,000000	2,914352
2251,000000	2,860408
2250,000000	2,806904
2249,000000	2,753249
2248,000000	2,699413
2247,000000	2,645762
2246,000000	2,592478
2245,000000	2,539734
2244,000000	2,487915
2243,000000	2,437103
2242,000000	2,386971
2241,000000	2,337599
2240,000000	2,289493
2239,000000	2,242332
2238,000000	2,194659
2237,000000	2,145627
2236,000000	2,096192
2235,000000	2,047865
2234,000000	2,001168
2233,000000	1,955904
2232,000000	1,911971
2231,000000	1,869000
2230,000000	1,826064
2229,000000	1,782673
2228,000000	1,739419
2227,000000	1,697019
2226,000000	1,655440
2225,000000	1,614495
2224,000000	1,574493
2223,000000	1,535628
2222,000000	1,497500
2221,000000	1,459770
2220,000000	1,422505
2219,000000	1,385609
2218,000000	1,348799
2217,000000	1,312436
2216,000000	1,277345
2215,000000	1,243551
2214,000000	1,210271
2213,000000	1,177333
2212,000000	1,145332
2211,000000	1,114217
2210,000000	1,083135
2209,000000	1,051965
2208,000000	1,021521
2207,000000	0,991994
2206,000000	0,962781
2205,000000	0,934054
2204,000000	0,906755
2203,000000	0,880698
2202,000000	0,854625
2201,000000	0,828549
2200,000000	0,804003
2199,000000	0,781376
2198,000000	0,759170
2197,000000	0,736551
2196,000000	0,714393
2195,000000	0,692884
2194,000000	0,670488
2193,000000	0,646752
2192,000000	0,623976
2191,000000	0,604458
2190,000000	0,587613
2189,000000	0,571219
2188,000000	0,553928
2187,000000	0,535512
2186,000000	0,516330
2185,000000	0,497748
2184,000000	0,481423
2183,000000	0,467067
2182,000000	0,452527
2181,000000	0,436881
2180,000000	0,421571
2179,000000	0,407556
2178,000000	0,393744
2177,000000	0,379426
2176,000000	0,365952
2175,000000	0,354297
2174,000000	0,343135
2173,000000	0,331147
2172,000000	0,319258
2171,000000	0,308702
2170,000000	0,298710
2169,000000	0,288106
2168,000000	0,277491
2167,000000	0,267952
2166,000000	0,259160
2165,000000	0,250604
2164,000000	0,243050
2163,000000	0,236796
2162,000000	0,230131
2161,000000	0,221729
2160,000000	0,213007
2159,000000	0,205864
2158,000000	0,199528
2157,000000	0,191994
2156,000000	0,183539
2155,000000	0,176256
2154,000000	0,170750
2153,000000	0,165678
2152,000000	0,160221
2151,000000	0,154833
2150,000000	0,149655
2149,000000	0,144130
2148,000000	0,138319
2147,000000	0,133134
2146,000000	0,129037
2145,000000	0,125488
2144,000000	0,121702
2143,000000	0,117284
2142,000000	0,112411
2141,000000	0,107990
2140,000000	0,105022
2139,000000	0,103209
2138,000000	0,101024
2137,000000	0,097680
2136,000000	0,094014
2135,000000	0,090810
2134,000000	0,087532
2133,000000	0,083639
2132,000000	0,079892
2131,000000	0,077226
2130,000000	0,075315
2129,000000	0,073340
2128,000000	0,071236
2127,000000	0,069135
2126,000000	0,066682
2125,000000	0,063859
2124,000000	0,061449
2123,000000	0,059806
2122,000000	0,058255
2121,000000	0,056604
2120,000000	0,055847
2119,000000	0,056245
2118,000000	0,056266
2117,000000	0,054587
2116,000000	0,051964
2115,000000	0,049959
2114,000000	0,048664
2113,000000	0,047181
2112,000000	0,045321
2111,000000	0,043422
2110,000000	0,041482
2109,000000	0,039663
2108,000000	0,038670
2107,000000	0,038622
2106,000000	0,038431
2105,000000	0,037317
2104,000000	0,036058
2103,000000	0,035856
2102,000000	0,036652
2101,000000	0,037461
2100,000000	0,037630
2099,000000	0,036747
2098,000000	0,034561
2097,000000	0,031841
2096,000000	0,030190
2095,000000	0,030217
2094,000000	0,030742
2093,000000	0,030577
2092,000000	0,029898
2091,000000	0,029250
2090,000000	0,028452
2089,000000	0,027390
2088,000000	0,026819
2087,000000	0,027274
2086,000000	0,028020
2085,000000	0,028241
2084,000000	0,028050
2083,000000	0,027647
2082,000000	0,026858
2081,000000	0,025902
2080,000000	0,025501
2079,000000	0,025559
2078,000000	0,025086
2077,000000	0,024052
2076,000000	0,023618
2075,000000	0,024114
2074,000000	0,024338
2073,000000	0,023566
2072,000000	0,022527
2071,000000	0,021578
2070,000000	0,020352
2069,000000	0,019219
2068,000000	0,019231
2067,000000	0,020562
2066,000000	0,021873
2065,000000	0,022096
2064,000000	0,021849
2063,000000	0,021761
2062,000000	0,021142
2061,000000	0,019812
2060,000000	0,019134
2059,000000	0,019897
2058,000000	0,020790
2057,000000	0,020464
2056,000000	0,019614
2055,000000	0,019486
2054,000000	0,019752
2053,000000	0,019293
2052,000000	0,018186
2051,000000	0,017349
2050,000000	0,016977
2049,000000	0,016747
2048,000000	0,016660
2047,000000	0,016590
2046,000000	0,015988
2045,000000	0,014961
2044,000000	0,014617
2043,000000	0,015384
2042,000000	0,016091
2041,000000	0,015763
2040,000000	0,015001
2039,000000	0,014878
2038,000000	0,015133
2037,000000	0,014941
2036,000000	0,014974
2035,000000	0,015847
2034,000000	0,016493
2033,000000	0,016247
2032,000000	0,015982
2031,000000	0,016414
2030,000000	0,016645
2029,000000	0,015586
2028,000000	0,013923
2027,000000	0,012921
2026,000000	0,012606
2025,000000	0,012434
2024,000000	0,012506
2023,000000	0,013014
2022,000000	0,013330
2021,000000	0,012855
2020,000000	0,011947
2019,000000	0,011151
2018,000000	0,010329
2017,000000	0,009136
2016,000000	0,008139
2015,000000	0,008072
2014,000000	0,008428
2013,000000	0,008471
2012,000000	0,008379
2011,000000	0,008553
2010,000000	0,008776
2009,000000	0,008747
2008,000000	0,008766
2007,000000	0,008910
2006,000000	0,008417
2005,000000	0,006875
2004,000000	0,005210
2003,000000	0,004356
2002,000000	0,004098
2001,000000	0,003954
2000,000000	0,003833
1999,000000	0,004143
1998,000000	0,004769
1997,000000	0,004916
1996,000000	0,004973
1995,000000	0,005078
1994,000000	0,004526
1993,000000	0,003670
1992,000000	0,003432
1991,000000	0,004109
1990,000000	0,004804
1989,000000	0,004711
1988,000000	0,004308
1987,000000	0,004192
1986,000000	0,004127
1985,000000	0,003871
1984,000000	0,003436
1983,000000	0,002535
1982,000000	0,001377
1981,000000	0,001577
1980,000000	0,002409
1979,000000	0,002976
1978,000000	0,003649
1977,000000	0,004029
1976,000000	0,004508
1975,000000	0,004683
1974,000000	0,003750
1973,000000	0,002057
1972,000000	0,000949
1971,000000	0,000623
1970,000000	0,000915
1969,000000	0,001076
1968,000000	0,000859
1967,000000	0,001438
1966,000000	0,001619
1965,000000	0,001052
1964,000000	0,001432
1963,000000	0,002578
1962,000000	0,002573
1961,000000	0,001327
1960,000000	0,001199
1959,000000	0,001191
1958,000000	0,002025
1957,000000	0,003074
1956,000000	0,002559
1955,000000	0,002768
1954,000000	0,003519
1953,000000	0,003873
1952,000000	0,004517
1951,000000	0,005615
1950,000000	0,005685
1949,000000	0,004303
1948,000000	0,003129
1947,000000	0,002578
1946,000000	0,002422
1945,000000	0,002622
1944,000000	0,002453
1943,000000	0,001443
1942,000000	0,000353
1941,000000	0,000869
1940,000000	0,001233
1939,000000	0,001096
1938,000000	0,001303
1937,000000	0,001471
1936,000000	0,001983
1935,000000	0,002783
1934,000000	0,002678
1933,000000	0,001268
1932,000000	0,001612
1931,000000	0,003128
1930,000000	0,003015
1929,000000	0,002050
1928,000000	0,001526
1927,000000	0,000933
1926,000000	0,000598
1925,000000	0,000901
1924,000000	0,000731
1923,000000	0,001793
1922,000000	0,003130
1921,000000	0,003341
1920,000000	0,002265
1919,000000	0,000739
1918,000000	0,000378
1917,000000	0,000933
1916,000000	0,002521
1915,000000	0,003927
1914,000000	0,003719
1913,000000	0,002435
1912,000000	0,001158
1911,000000	0,001171
1910,000000	0,001658
1909,000000	0,000854
1908,000000	0,001398
1907,000000	0,003259
1906,000000	0,003498
1905,000000	0,002991
1904,000000	0,002205
1903,000000	0,001636
1902,000000	0,001361
1901,000000	0,001058
1900,000000	0,000898
1899,000000	0,001323
1898,000000	0,001888
1897,000000	0,001720
1896,000000	0,001233
1895,000000	0,000613
1894,000000	0,000150
1893,000000	0,000323
1892,000000	0,000627
1891,000000	0,000947
1890,000000	0,000632
1889,000000	0,001477
1888,000000	0,002387
1887,000000	0,001015
1886,000000	0,001003
1885,000000	0,001581
1884,000000	0,001144
1883,000000	0,001836
1882,000000	0,003374
1881,000000	0,004124
1880,000000	0,003103
1879,000000	0,001394
1878,000000	0,000888
1877,000000	0,000855
1876,000000	0,001323
1875,000000	0,000724
1874,000000	0,001020
1873,000000	0,002489
1872,000000	0,002826
1871,000000	0,003378
1870,000000	0,003426
1869,000000	0,002844
1868,000000	0,001952
1867,000000	0,001736
1866,000000	0,001817
1865,000000	0,001153
1864,000000	0,000601
1863,000000	0,001145
1862,000000	0,001935
1861,000000	0,002416
1860,000000	0,002326
1859,000000	0,002052
1858,000000	0,002150
1857,000000	0,002069
1856,000000	0,001819
1855,000000	0,001777
1854,000000	0,001978
1853,000000	0,002177
1852,000000	0,001822
1851,000000	0,001395
1850,000000	0,001471
1849,000000	0,002023
1848,000000	0,002652
1847,000000	0,002797
1846,000000	0,002050
1845,000000	0,000894
1844,000000	0,000740
1843,000000	0,001331
1842,000000	0,001968
1841,000000	0,002556
1840,000000	0,002969
1839,000000	0,003489
1838,000000	0,003730
1837,000000	0,003067
1836,000000	0,001910
1835,000000	0,001354
1834,000000	0,001343
1833,000000	0,001271
1832,000000	0,001664
1831,000000	0,002350
1830,000000	0,002592
1829,000000	0,002403
1828,000000	0,001512
1827,000000	0,001029
1826,000000	0,001354
1825,000000	0,000946
1824,000000	0,000992
1823,000000	0,000507
1822,000000	0,000151
1821,000000	0,000402
1820,000000	0,000541
1819,000000	0,000438
1818,000000	0,000759
1817,000000	0,001259
1816,000000	0,002352
1815,000000	0,002664
1814,000000	0,002060
1813,000000	0,002029
1812,000000	0,002176
1811,000000	0,002229
1810,000000	0,002335
1809,000000	0,002243
1808,000000	0,002256
1807,000000	0,002778
1806,000000	0,003365
1805,000000	0,003352
1804,000000	0,003102
1803,000000	0,003212
1802,000000	0,003563
1801,000000	0,003270
1800,000000	0,002630
1799,000000	0,002312
1798,000000	0,002188
1797,000000	0,002452
1796,000000	0,002596
1795,000000	0,001992
1794,000000	0,001460
1793,000000	0,001589
1792,000000	0,001960
1791,000000	0,002657
1790,000000	0,002814
1789,000000	0,002438
1788,000000	0,002402
1787,000000	0,002522
1786,000000	0,002632
1785,000000	0,002903
1784,000000	0,002774
1783,000000	0,001735
1782,000000	0,001722
1781,000000	0,002603
1780,000000	0,002064
1779,000000	0,000704
1778,000000	0,000189
1777,000000	0,000535
1776,000000	0,001563
1775,000000	0,002678
1774,000000	0,002874
1773,000000	0,002153
1772,000000	0,001629
1771,000000	0,002153
1770,000000	0,002635
1769,000000	0,002238
1768,000000	0,001992
1767,000000	0,002001
1766,000000	0,002231
1765,000000	0,002058
1764,000000	0,000735
1763,000000	0,000517
1762,000000	0,001674
1761,000000	0,001812
1760,000000	0,001256
1759,000000	0,001027
1758,000000	0,001411
1757,000000	0,000988
1756,000000	0,001794
1755,000000	0,002413
1754,000000	0,002388
1753,000000	0,002263
1752,000000	0,002515
1751,000000	0,003502
1750,000000	0,004417
1749,000000	0,004642
1748,000000	0,004409
1747,000000	0,003248
1746,000000	0,001346
1745,000000	0,000938
1744,000000	0,001802
1743,000000	0,001720
1742,000000	0,001442
1741,000000	0,001320
1740,000000	0,001574
1739,000000	0,001956
1738,000000	0,001727
1737,000000	0,001129
1736,000000	0,001011
1735,000000	0,002095
1734,000000	0,002643
1733,000000	0,001600
1732,000000	0,000613
1731,000000	0,001777
1730,000000	0,003090
1729,000000	0,003653
1728,000000	0,003286
1727,000000	0,002402
1726,000000	0,001524
1725,000000	0,001840
1724,000000	0,002766
1723,000000	0,003273
1722,000000	0,003634
1721,000000	0,004180
1720,000000	0,004854
1719,000000	0,005218
1718,000000	0,004934
1717,000000	0,004072
1716,000000	0,003419
1715,000000	0,003333
1714,000000	0,002969
1713,000000	0,002630
1712,000000	0,002303
1711,000000	0,001462
1710,000000	0,001147
1709,000000	0,001209
1708,000000	0,000997
1707,000000	0,001621
1706,000000	0,002437
1705,000000	0,002119
1704,000000	0,001622
1703,000000	0,001815
1702,000000	0,002179
1701,000000	0,001778
1700,000000	0,001966
1699,000000	0,002274
1698,000000	0,001300
1697,000000	0,000296
1696,000000	0,000608
1695,000000	0,000349
1694,000000	0,000777
1693,000000	0,002162
1692,000000	0,002675
1691,000000	0,002112
1690,000000	0,000665
1689,000000	0,001468
1688,000000	0,002687
1687,000000	0,001887
1686,000000	0,001203
1685,000000	0,002119
1684,000000	0,002981
1683,000000	0,002895
1682,000000	0,002443
1681,000000	0,002701
1680,000000	0,003592
1679,000000	0,004222
1678,000000	0,004033
1677,000000	0,002886
1676,000000	0,001879
1675,000000	0,001958
1674,000000	0,002331
1673,000000	0,001950
1672,000000	0,001432
1671,000000	0,001514
1670,000000	0,001935
1669,000000	0,002457
1668,000000	0,002335
1667,000000	0,001667
1666,000000	0,001346
1665,000000	0,001314
1664,000000	0,001404
1663,000000	0,001867
1662,000000	0,002543
1661,000000	0,002068
1660,000000	0,001099
1659,000000	0,000885
1658,000000	0,001143
1657,000000	0,001494
1656,000000	0,002228
1655,000000	0,003149
1654,000000	0,002764
1653,000000	0,001409
1652,000000	0,002607
1651,000000	0,002729
1650,000000	0,001698
1649,000000	0,001775
1648,000000	0,001701
1647,000000	0,001494
1646,000000	0,001355
1645,000000	0,000577
1644,000000	0,001570
1643,000000	0,002957
1642,000000	0,002805
1641,000000	0,001859
1640,000000	0,001534
1639,000000	0,002168
1638,000000	0,002858
1637,000000	0,003320
1636,000000	0,003226
1635,000000	0,002528
1634,000000	0,001617
1633,000000	0,000862
1632,000000	0,000880
1631,000000	0,001225
1630,000000	0,001065
1629,000000	0,000814
1628,000000	0,001494
1627,000000	0,002073
1626,000000	0,002259
1625,000000	0,001884
1624,000000	0,000792
1623,000000	0,001497
1622,000000	0,002239
1621,000000	0,001156
1620,000000	0,000302
1619,000000	0,001394
1618,000000	0,002384
1617,000000	0,002295
1616,000000	0,001353
1615,000000	0,000896
1614,000000	0,001214
1613,000000	0,001733
1612,000000	0,002017
1611,000000	0,001875
1610,000000	0,001042
1609,000000	0,000269
1608,000000	0,000766
1607,000000	0,001209
1606,000000	0,002632
1605,000000	0,002506
1604,000000	0,000984
1603,000000	0,000741
1602,000000	0,001113
1601,000000	0,000763
1600,000000	0,001518
1599,000000	0,002859
1598,000000	0,003190
1597,000000	0,001982
1596,000000	0,001144
1595,000000	0,002034
1594,000000	0,002031
1593,000000	0,001577
1592,000000	0,001478
1591,000000	0,002003
1590,000000	0,002406
1589,000000	0,002134
1588,000000	0,001537
1587,000000	0,001485
1586,000000	0,001923
1585,000000	0,001731
1584,000000	0,001047
1583,000000	0,000660
1582,000000	0,000856
1581,000000	0,001464
1580,000000	0,002338
1579,000000	0,003141
1578,000000	0,003033
1577,000000	0,001720
1576,000000	0,000451
1575,000000	0,000614
1574,000000	0,001156
1573,000000	0,002539
1572,000000	0,003364
1571,000000	0,002548
1570,000000	0,000969
1569,000000	0,001090
1568,000000	0,001679
1567,000000	0,001828
1566,000000	0,001710
1565,000000	0,002384
1564,000000	0,003005
1563,000000	0,002942
1562,000000	0,002942
1561,000000	0,002469
1560,000000	0,001814
1559,000000	0,001452
1558,000000	0,000838
1557,000000	0,000163
1556,000000	0,000490
1555,000000	0,001510
1554,000000	0,002343
1553,000000	0,001884
1552,000000	0,000894
1551,000000	0,001300
1550,000000	0,001357
1549,000000	0,001167
1548,000000	0,001321
1547,000000	0,001725
1546,000000	0,002084
1545,000000	0,001914
1544,000000	0,001855
1543,000000	0,002560
1542,000000	0,002911
1541,000000	0,002548
1540,000000	0,001796
1539,000000	0,001534
1538,000000	0,001512
1537,000000	0,000983
1536,000000	0,000365
1535,000000	0,001174
1534,000000	0,002603
1533,000000	0,003237
1532,000000	0,002250
1531,000000	0,001240
1530,000000	0,002385
1529,000000	0,002766
1528,000000	0,002329
1527,000000	0,001552
1526,000000	0,000895
1525,000000	0,000920
1524,000000	0,001736
1523,000000	0,002768
1522,000000	0,002520
1521,000000	0,001810
1520,000000	0,002456
1519,000000	0,003141
1518,000000	0,002831
1517,000000	0,001880
1516,000000	0,002045
1515,000000	0,002989
1514,000000	0,003047
1513,000000	0,002213
1512,000000	0,000922
1511,000000	0,000786
1510,000000	0,001428
1509,000000	0,001266
1508,000000	0,001041
1507,000000	0,000383
1506,000000	0,000550
1505,000000	0,001831
1504,000000	0,002196
1503,000000	0,001311
1502,000000	0,000669
1501,000000	0,000944
1500,000000	0,001092
1499,000000	0,001752
1498,000000	0,002586
1497,000000	0,002524
1496,000000	0,002080
1495,000000	0,002145
1494,000000	0,001987
1493,000000	0,001302
1492,000000	0,001367
1491,000000	0,001582
1490,000000	0,001758
1489,000000	0,001850
1488,000000	0,001825
1487,000000	0,002167
1486,000000	0,002285
1485,000000	0,001559
1484,000000	0,000968
1483,000000	0,001216
1482,000000	0,000946
1481,000000	0,000547
1480,000000	0,000545
1479,000000	0,000884
1478,000000	0,001217
1477,000000	0,001659
1476,000000	0,002332
1475,000000	0,002684
1474,000000	0,001941
1473,000000	0,000501
1472,000000	0,001679
1471,000000	0,002636
1470,000000	0,002925
1469,000000	0,002408
1468,000000	0,001800
1467,000000	0,002737
1466,000000	0,003876
1465,000000	0,003973
1464,000000	0,003355
1463,000000	0,002642
1462,000000	0,001940
1461,000000	0,001534
1460,000000	0,001799
1459,000000	0,001731
1458,000000	0,001374
1457,000000	0,001192
1456,000000	0,000673
1455,000000	0,001068
1454,000000	0,002150
1453,000000	0,002323
1452,000000	0,001453
1451,000000	0,000329
1450,000000	0,000583
1449,000000	0,000857
1448,000000	0,001277
1447,000000	0,002042
1446,000000	0,002240
1445,000000	0,001662
1444,000000	0,001316
1443,000000	0,001918
1442,000000	0,002378
1441,000000	0,003143
1440,000000	0,003701
1439,000000	0,002907
1438,000000	0,001682
1437,000000	0,001457
1436,000000	0,002301
1435,000000	0,003111
1434,000000	0,002774
1433,000000	0,001412
1432,000000	0,001064
1431,000000	0,001438
1430,000000	0,001764
1429,000000	0,001978
1428,000000	0,001786
1427,000000	0,001942
1426,000000	0,002860
1425,000000	0,003151
1424,000000	0,002595
1423,000000	0,002396
1422,000000	0,002665
1421,000000	0,002770
1420,000000	0,002773
1419,000000	0,002422
1418,000000	0,001517
1417,000000	0,001011
1416,000000	0,002048
1415,000000	0,002726
1414,000000	0,001923
1413,000000	0,000994
1412,000000	0,001277
1411,000000	0,001140
1410,000000	0,001166
1409,000000	0,000567
1408,000000	0,000115
1407,000000	0,000559
1406,000000	0,001238
1405,000000	0,001573
1404,000000	0,001804
1403,000000	0,002049
1402,000000	0,002486
1401,000000	0,002478
1400,000000	0,002140
1399,000000	0,002268
1398,000000	0,002704
1397,000000	0,002594
1396,000000	0,002075
1395,000000	0,001913
1394,000000	0,002266
1393,000000	0,002348
1392,000000	0,001959
1391,000000	0,001326
1390,000000	0,000664
1389,000000	0,001173
1388,000000	0,001917
1387,000000	0,002337
1386,000000	0,002530
1385,000000	0,002164
1384,000000	0,001273
1383,000000	0,000855
1382,000000	0,001610
1381,000000	0,001462
1380,000000	0,000485
1379,000000	0,000342
1378,000000	0,000800
1377,000000	0,001129
1376,000000	0,001631
1375,000000	0,001910
1374,000000	0,001700
1373,000000	0,001378
1372,000000	0,001610
1371,000000	0,001917
1370,000000	0,001497
1369,000000	0,002008
1368,000000	0,002740
1367,000000	0,001850
1366,000000	0,000668
1365,000000	0,000622
1364,000000	0,001078
1363,000000	0,000886
1362,000000	0,000557
1361,000000	0,000604
1360,000000	0,001938
1359,000000	0,003123
1358,000000	0,003712
1357,000000	0,003696
1356,000000	0,003260
1355,000000	0,002519
1354,000000	0,001527
1353,000000	0,000960
1352,000000	0,001168
1351,000000	0,001807
1350,000000	0,002059
1349,000000	0,001464
1348,000000	0,000795
1347,000000	0,001840
1346,000000	0,003472
1345,000000	0,004249
1344,000000	0,004788
1343,000000	0,005500
1342,000000	0,005301
1341,000000	0,003847
1340,000000	0,002176
1339,000000	0,000848
1338,000000	0,000847
1337,000000	0,001534
1336,000000	0,001413
1335,000000	0,001699
1334,000000	0,002214
1333,000000	0,002026
1332,000000	0,001581
1331,000000	0,001616
1330,000000	0,002047
1329,000000	0,002359
1328,000000	0,001971
1327,000000	0,000928
1326,000000	0,001233
1325,000000	0,001340
1324,000000	0,001532
1323,000000	0,002861
1322,000000	0,004093
1321,000000	0,004221
1320,000000	0,003932
1319,000000	0,004243
1318,000000	0,004685
1317,000000	0,004347
1316,000000	0,003754
1315,000000	0,003876
1314,000000	0,004249
1313,000000	0,004404
1312,000000	0,004416
1311,000000	0,004069
1310,000000	0,003197
1309,000000	0,002115
1308,000000	0,001666
1307,000000	0,001510
1306,000000	0,001258
1305,000000	0,000566
1304,000000	0,000224
1303,000000	0,000162
1302,000000	0,000253
1301,000000	0,000389
1300,000000	0,000813
1299,000000	0,001356
1298,000000	0,002045
1297,000000	0,002124
1296,000000	0,001808
1295,000000	0,001884
1294,000000	0,001951
1293,000000	0,001057
1292,000000	0,000429
1291,000000	0,001143
1290,000000	0,000388
1289,000000	0,000614
1288,000000	0,001251
1287,000000	0,001405
1286,000000	0,001510
1285,000000	0,001636
1284,000000	0,000954
1283,000000	0,000762
1282,000000	0,001609
1281,000000	0,001456
1280,000000	0,001361
1279,000000	0,001945
1278,000000	0,002275
1277,000000	0,002168
1276,000000	0,001974
1275,000000	0,000995
1274,000000	0,001440
1273,000000	0,002583
1272,000000	0,003219
1271,000000	0,003367
1270,000000	0,003381
1269,000000	0,003096
1268,000000	0,002340
1267,000000	0,001721
1266,000000	0,001558
1265,000000	0,001307
1264,000000	0,001304
1263,000000	0,001125
1262,000000	0,000328
1261,000000	0,000863
1260,000000	0,001812
1259,000000	0,002996
1258,000000	0,004514
1257,000000	0,004944
1256,000000	0,004283
1255,000000	0,003654
1254,000000	0,003197
1253,000000	0,002490
1252,000000	0,002298
1251,000000	0,002108
1250,000000	0,001137
1249,000000	0,000597
1248,000000	0,000468
1247,000000	0,000431
1246,000000	0,000741
1245,000000	0,000883
1244,000000	0,000575
1243,000000	0,001671
1242,000000	0,003101
1241,000000	0,003217
1240,000000	0,002072
1239,000000	0,000929
1238,000000	0,000980
1237,000000	0,000821
1236,000000	0,001070
1235,000000	0,001760
1234,000000	0,001788
1233,000000	0,001585
1232,000000	0,001596
1231,000000	0,001973
1230,000000	0,002233
1229,000000	0,002202
1228,000000	0,001800
1227,000000	0,001489
1226,000000	0,001852
1225,000000	0,002402
1224,000000	0,002640
1223,000000	0,002111
1222,000000	0,001357
1221,000000	0,001169
1220,000000	0,001126
1219,000000	0,000452
1218,000000	0,001124
1217,000000	0,001608
1216,000000	0,001270
1215,000000	0,000840
1214,000000	0,000903
1213,000000	0,001129
1212,000000	0,001004
1211,000000	0,000946
1210,000000	0,001230
1209,000000	0,001303
1208,000000	0,000730
1207,000000	0,000723
1206,000000	0,001876
1205,000000	0,002941
1204,000000	0,004157
1203,000000	0,005224
1202,000000	0,005167
1201,000000	0,003830
1200,000000	0,002365
1199,000000	0,001638
1198,000000	0,001498
1197,000000	0,001135
1196,000000	0,001070
1195,000000	0,002192
1194,000000	0,002663
1193,000000	0,001854
1192,000000	0,000841
1191,000000	0,001031
1190,000000	0,001001
1189,000000	0,000576
1188,000000	0,000557
1187,000000	0,001379
1186,000000	0,002258
1185,000000	0,002634
1184,000000	0,002342
1183,000000	0,002554
1182,000000	0,002828
1181,000000	0,002745
1180,000000	0,002847
1179,000000	0,002640
1178,000000	0,001825
1177,000000	0,001039
1176,000000	0,000944
1175,000000	0,000771
1174,000000	0,000917
1173,000000	0,001861
1172,000000	0,002373
1171,000000	0,002304
1170,000000	0,001898
1169,000000	0,001615
1168,000000	0,002219
1167,000000	0,003041
1166,000000	0,002843
1165,000000	0,001771
1164,000000	0,001225
1163,000000	0,001410
1162,000000	0,001163
1161,000000	0,000453
1160,000000	0,001036
1159,000000	0,001174
1158,000000	0,000815
1157,000000	0,000928
1156,000000	0,002221
1155,000000	0,003376
1154,000000	0,003128
1153,000000	0,001674
1152,000000	0,001188
1151,000000	0,002247
1150,000000	0,003714
1149,000000	0,004647
1148,000000	0,004746
1147,000000	0,004388
1146,000000	0,003398
1145,000000	0,001625
1144,000000	0,000336
1143,000000	0,000468
1142,000000	0,001054
1141,000000	0,001622
1140,000000	0,001160
1139,000000	0,000281
1138,000000	0,000442
1137,000000	0,000979
1136,000000	0,001867
1135,000000	0,002601
1134,000000	0,002409
1133,000000	0,001428
1132,000000	0,000741
1131,000000	0,000836
1130,000000	0,001190
1129,000000	0,001352
1128,000000	0,001192
1127,000000	0,001172
1126,000000	0,001547
1125,000000	0,001724
1124,000000	0,001727
1123,000000	0,001779
1122,000000	0,001885
1121,000000	0,002019
1120,000000	0,002217
1119,000000	0,002565
1118,000000	0,002715
1117,000000	0,002156
1116,000000	0,001531
1115,000000	0,001693
1114,000000	0,002312
1113,000000	0,003077
1112,000000	0,003907
1111,000000	0,004758
1110,000000	0,005187
1109,000000	0,004623
1108,000000	0,003314
1107,000000	0,002146
1106,000000	0,001357
1105,000000	0,001308
1104,000000	0,002459
1103,000000	0,003020
1102,000000	0,002512
1101,000000	0,001519
1100,000000	0,001045
1099,000000	0,001337
1098,000000	0,001834
1097,000000	0,001889
1096,000000	0,001387
1095,000000	0,000705
1094,000000	0,000526
1093,000000	0,001227
1092,000000	0,002152
1091,000000	0,002385
1090,000000	0,001344
1089,000000	0,000291
1088,000000	0,001001
1087,000000	0,003048
1086,000000	0,004821
1085,000000	0,004502
1084,000000	0,002573
1083,000000	0,000597
1082,000000	0,000775
1081,000000	0,001273
1080,000000	0,001134
1079,000000	0,000828
1078,000000	0,001566
1077,000000	0,002352
1076,000000	0,002475
1075,000000	0,002120
1074,000000	0,001308
1073,000000	0,000322
1072,000000	0,000165
1071,000000	0,000894
1070,000000	0,002504
1069,000000	0,003387
1068,000000	0,002861
1067,000000	0,001445
1066,000000	0,001021
1065,000000	0,001523
1064,000000	0,002151
1063,000000	0,001673
1062,000000	0,000680
1061,000000	0,000364
1060,000000	0,000462
1059,000000	0,000226
1058,000000	0,000951
1057,000000	0,001618
1056,000000	0,002277
1055,000000	0,003079
1054,000000	0,003520
1053,000000	0,002749
1052,000000	0,001464
1051,000000	0,001265
1050,000000	0,000813
1049,000000	0,000520
1048,000000	0,001615
1047,000000	0,001733
1046,000000	0,001235
1045,000000	0,001806
1044,000000	0,002266
1043,000000	0,001864
1042,000000	0,001122
1041,000000	0,001088
1040,000000	0,001265
1039,000000	0,001836
1038,000000	0,002233
1037,000000	0,001944
1036,000000	0,001459
1035,000000	0,000926
1034,000000	0,000359
1033,000000	0,000923
1032,000000	0,000972
1031,000000	0,000906
1030,000000	0,001584
1029,000000	0,001256
1028,000000	0,001169
1027,000000	0,001955
1026,000000	0,002068
1025,000000	0,001433
1024,000000	0,001498
1023,000000	0,002859
1022,000000	0,003474
1021,000000	0,002705
1020,000000	0,001305
1019,000000	0,001433
1018,000000	0,002459
1017,000000	0,002328
1016,000000	0,001506
1015,000000	0,001196
1014,000000	0,001064
1013,000000	0,000712
1012,000000	0,001066
1011,000000	0,001241
1010,000000	0,000960
1009,000000	0,000864
1008,000000	0,001657
1007,000000	0,002460
1006,000000	0,002547
1005,000000	0,001900
1004,000000	0,001440
1003,000000	0,001943
1002,000000	0,002737
1001,000000	0,002655
1000,000000	0,001465
999,000000	0,000430
998,000000	0,001490
997,000000	0,001780
996,000000	0,001849
995,000000	0,002585
994,000000	0,003233
993,000000	0,003111
992,000000	0,002418
991,000000	0,001687
990,000000	0,000943
989,000000	0,000980
988,000000	0,001588
987,000000	0,001292
986,000000	0,000954
985,000000	0,001421
984,000000	0,001920
983,000000	0,002501
982,000000	0,002578
981,000000	0,002198
980,000000	0,002040
979,000000	0,002120
978,000000	0,002169
977,000000	0,001741
976,000000	0,001808
975,000000	0,002557
974,000000	0,003128
973,000000	0,003377
972,000000	0,003584
971,000000	0,003921
970,000000	0,003742
969,000000	0,002917
968,000000	0,002092
967,000000	0,001718
966,000000	0,001715
965,000000	0,002003
964,000000	0,002714
963,000000	0,003384
962,000000	0,003226
961,000000	0,002390
960,000000	0,001827
959,000000	0,001575
958,000000	0,000948
957,000000	0,001008
956,000000	0,001481
955,000000	0,001127
954,000000	0,002505
953,000000	0,003822
952,000000	0,004376
951,000000	0,004436
950,000000	0,003766
949,000000	0,002409
948,000000	0,001305
947,000000	0,001003
946,000000	0,000694
945,000000	0,000568
944,000000	0,000794
943,000000	0,001018
942,000000	0,001554
941,000000	0,001430
940,000000	0,001127
939,000000	0,001139
938,000000	0,002145
937,000000	0,002655
936,000000	0,002443
935,000000	0,002054
934,000000	0,001716
933,000000	0,001120
932,000000	0,000558
931,000000	0,000710
930,000000	0,001654
929,000000	0,002154
928,000000	0,001858
927,000000	0,001599
926,000000	0,001752
925,000000	0,001737
924,000000	0,001593
923,000000	0,002089
922,000000	0,002892
921,000000	0,003292
920,000000	0,003452
919,000000	0,003333
918,000000	0,003050
917,000000	0,002601
916,000000	0,001815
915,000000	0,001464
914,000000	0,001878
913,000000	0,001398
912,000000	0,000151
911,000000	0,000376
910,000000	0,000319
909,000000	0,000761
908,000000	0,000645
907,000000	0,000744
906,000000	0,001729
905,000000	0,002991
904,000000	0,003654
903,000000	0,003559
902,000000	0,003044
901,000000	0,002479
900,000000	0,002316
899,000000	0,002530
898,000000	0,002190
897,000000	0,000990
896,000000	0,000347
895,000000	0,000659
894,000000	0,000870
893,000000	0,001137
892,000000	0,001401
891,000000	0,001881
890,000000	0,002045
889,000000	0,001854
888,000000	0,001351
887,000000	0,000750
886,000000	0,000448
885,000000	0,000810
884,000000	0,001828
883,000000	0,002934
882,000000	0,003290
881,000000	0,002662
880,000000	0,001829
879,000000	0,001564
878,000000	0,001575
877,000000	0,001788
876,000000	0,002166
875,000000	0,002380
874,000000	0,002284
873,000000	0,001922
872,000000	0,001472
871,000000	0,001262
870,000000	0,001072
869,000000	0,000927
868,000000	0,001368
867,000000	0,001791
866,000000	0,001858
865,000000	0,001738
864,000000	0,001507
863,000000	0,001754
862,000000	0,002418
861,000000	0,002249
860,000000	0,001706
859,000000	0,001661
858,000000	0,002015
857,000000	0,002240
856,000000	0,001985
855,000000	0,001495
854,000000	0,000854
853,000000	0,000717
852,000000	0,001044
851,000000	0,001380
850,000000	0,001392
849,000000	0,001134
848,000000	0,001316
847,000000	0,002105
846,000000	0,002520
845,000000	0,002323
844,000000	0,002441
843,000000	0,002935
842,000000	0,002952
841,000000	0,002647
840,000000	0,002471
839,000000	0,002261
838,000000	0,001753
837,000000	0,001255
836,000000	0,000958
835,000000	0,000576
834,000000	0,000356
833,000000	0,000594
832,000000	0,002464
831,000000	0,004663
830,000000	0,005393
829,000000	0,004459
828,000000	0,003386
827,000000	0,003049
826,000000	0,002942
825,000000	0,002980
824,000000	0,003280
823,000000	0,003292
822,000000	0,002487
821,000000	0,001396
820,000000	0,000660
819,000000	0,001379
818,000000	0,001708
817,000000	0,001359
816,000000	0,001528
815,000000	0,001887
814,000000	0,001933
813,000000	0,001917
812,000000	0,002774
811,000000	0,003131
810,000000	0,002478
809,000000	0,001389
808,000000	0,000869
807,000000	0,001498
806,000000	0,001871
805,000000	0,001545
804,000000	0,000788
803,000000	0,000763
802,000000	0,001346
801,000000	0,001653
800,000000	0,002016
799,000000	0,002761
798,000000	0,003064
797,000000	0,002710
796,000000	0,002674
795,000000	0,003020
794,000000	0,002643
793,000000	0,001345
792,000000	0,000918
791,000000	0,002172
790,000000	0,003065
789,000000	0,002734
788,000000	0,001874
787,000000	0,002098
786,000000	0,003120
785,000000	0,003081
784,000000	0,001872
783,000000	0,000625
782,000000	0,000300
781,000000	0,000862
780,000000	0,001006
779,000000	0,000541
778,000000	0,001137
777,000000	0,002362
776,000000	0,002884
775,000000	0,002583
774,000000	0,001911
773,000000	0,001317
772,000000	0,001107
771,000000	0,001362
770,000000	0,001437
769,000000	0,000961
768,000000	0,000947
767,000000	0,000733
766,000000	0,001331
765,000000	0,002330
764,000000	0,003120
763,000000	0,003432
762,000000	0,003017
761,000000	0,001969
760,000000	0,001965
759,000000	0,003268
758,000000	0,003429
757,000000	0,002322
756,000000	0,000716
755,000000	0,000789
754,000000	0,002260
753,000000	0,002861
752,000000	0,003226
751,000000	0,003858
750,000000	0,004289
749,000000	0,004397
748,000000	0,004297
747,000000	0,003844
746,000000	0,002923
745,000000	0,002253
744,000000	0,002270
743,000000	0,002379
742,000000	0,002160
741,000000	0,001603
740,000000	0,001661
739,000000	0,001535
738,000000	0,000780
737,000000	0,002063
736,000000	0,003387
735,000000	0,003685
734,000000	0,003330
733,000000	0,002754
732,000000	0,002570
731,000000	0,002956
730,000000	0,003130
729,000000	0,002746
728,000000	0,002458
727,000000	0,002767
726,000000	0,003028
725,000000	0,002722
724,000000	0,002523
723,000000	0,002788
722,000000	0,002789
721,000000	0,002556
720,000000	0,002680
719,000000	0,002156
718,000000	0,000968
717,000000	0,000260
716,000000	0,000493
715,000000	0,000459
714,000000	0,001161
713,000000	0,001383
712,000000	0,001734
711,000000	0,001775
710,000000	0,000989
709,000000	0,000505
708,000000	0,001408
707,000000	0,001202
706,000000	0,000789
705,000000	0,001719
704,000000	0,002680
703,000000	0,003263
702,000000	0,002765
701,000000	0,001410
700,000000	0,001196
699,000000	0,001131
698,000000	0,001283
697,000000	0,001181
696,000000	0,000679
695,000000	0,001288
694,000000	0,003013
693,000000	0,004487
692,000000	0,004601
691,000000	0,003724
690,000000	0,003027
689,000000	0,002923
688,000000	0,003293
687,000000	0,003828
686,000000	0,003976
685,000000	0,003452
684,000000	0,002666
683,000000	0,002276
682,000000	0,002106
681,000000	0,002182
680,000000	0,002651
679,000000	0,003022
678,000000	0,002768
677,000000	0,001368
676,000000	0,001090
675,000000	0,002063
674,000000	0,002451
673,000000	0,002752
672,000000	0,002823
671,000000	0,002635
670,000000	0,002859
669,000000	0,002672
668,000000	0,001683
667,000000	0,001286
666,000000	0,001477
665,000000	0,001520
664,000000	0,001216
663,000000	0,000541
662,000000	0,000122
661,000000	0,000448
660,000000	0,001700
659,000000	0,003504
658,000000	0,004234
657,000000	0,003097
656,000000	0,001750
655,000000	0,002248
654,000000	0,002427
653,000000	0,001794
652,000000	0,001634
651,000000	0,002206
650,000000	0,002409
649,000000	0,001871
648,000000	0,001072
647,000000	0,001130
646,000000	0,001375
645,000000	0,001314
644,000000	0,001428
643,000000	0,000913
642,000000	0,000630
641,000000	0,001086
640,000000	0,001226
639,000000	0,001387
638,000000	0,001590
637,000000	0,001624
636,000000	0,002237
635,000000	0,003179
634,000000	0,003492
633,000000	0,002928
632,000000	0,002127
631,000000	0,001728
630,000000	0,001445
629,000000	0,001208
628,000000	0,000961
627,000000	0,000502
626,000000	0,001044
625,000000	0,001964
624,000000	0,002772
623,000000	0,003166
622,000000	0,002505
621,000000	0,000818
620,000000	0,001281
619,000000	0,002279
618,000000	0,002439
617,000000	0,002243
616,000000	0,002211
615,000000	0,002367
614,000000	0,002563
613,000000	0,002656
612,000000	0,002389
611,000000	0,001480
610,000000	0,000203
609,000000	0,000996
608,000000	0,001048
607,000000	0,002027
606,000000	0,003645
605,000000	0,004201
604,000000	0,002744
603,000000	0,001299
602,000000	0,003387
601,000000	0,003386
600,000000	0,001842
599,000000	0,000951
598,000000	0,000882
597,000000	0,000520
596,000000	0,000412
595,000000	0,000756
594,000000	0,002685
593,000000	0,003869
592,000000	0,003398
591,000000	0,002282
590,000000	0,001763
589,000000	0,002292
588,000000	0,003274
587,000000	0,003557
586,000000	0,002979
585,000000	0,002346
584,000000	0,001783
583,000000	0,001559
582,000000	0,002163
581,000000	0,002848
580,000000	0,002741
579,000000	0,001935
578,000000	0,001213
577,000000	0,001135
576,000000	0,001046
575,000000	0,001105
574,000000	0,001545
573,000000	0,001548
572,000000	0,001476
571,000000	0,001790
570,000000	0,002481
569,000000	0,002813
568,000000	0,002559
567,000000	0,002339
566,000000	0,002478
565,000000	0,002620
564,000000	0,002303
563,000000	0,002024
562,000000	0,002309
561,000000	0,002363
560,000000	0,001874
559,000000	0,001429
558,000000	0,001429
557,000000	0,001714
556,000000	0,002065
555,000000	0,002181
554,000000	0,002189
553,000000	0,002431
552,000000	0,002366
551,000000	0,001515
550,000000	0,000412
549,000000	0,001493
548,000000	0,002208
547,000000	0,002388
546,000000	0,002957
545,000000	0,003577
544,000000	0,003519
543,000000	0,002877
542,000000	0,002266
541,000000	0,002202
540,000000	0,002442
539,000000	0,002852
538,000000	0,003261
537,000000	0,003296
536,000000	0,003084
535,000000	0,002577
534,000000	0,001845
533,000000	0,001606
532,000000	0,002044
531,000000	0,002199
530,000000	0,001156
529,000000	0,001454
528,000000	0,002117
527,000000	0,001233
526,000000	0,001518
525,000000	0,002018
524,000000	0,001714
523,000000	0,001449
522,000000	0,001721
521,000000	0,002586
520,000000	0,003211
519,000000	0,002801
518,000000	0,001902
517,000000	0,002078
516,000000	0,002843
515,000000	0,003858
514,000000	0,004377
513,000000	0,003884
512,000000	0,003332
511,000000	0,003236
510,000000	0,003017
509,000000	0,002418
508,000000	0,002102
507,000000	0,002648
506,000000	0,002823
505,000000	0,001993
504,000000	0,000983
503,000000	0,000866
502,000000	0,001367
501,000000	0,001617
500,000000	0,001725
499,000000	0,001876
498,000000	0,001682
497,000000	0,001377
496,000000	0,001247
495,000000	0,001405
494,000000	0,002019
493,000000	0,002727
492,000000	0,002970
491,000000	0,002408
490,000000	0,001306
489,000000	0,000436
488,000000	0,001231
487,000000	0,002030
486,000000	0,002275
485,000000	0,002297
484,000000	0,002583
483,000000	0,003001
482,000000	0,002766
481,000000	0,001550
480,000000	0,000431
479,000000	0,001208
478,000000	0,002322
477,000000	0,002773
476,000000	0,002082
475,000000	0,001016
474,000000	0,000383
473,000000	0,000645
472,000000	0,001256
471,000000	0,002027
470,000000	0,003134
469,000000	0,003954
468,000000	0,004183
467,000000	0,003949
466,000000	0,003458
465,000000	0,002882
464,000000	0,002647
463,000000	0,002681
462,000000	0,002321
461,000000	0,001698
460,000000	0,001226
459,000000	0,001142
458,000000	0,001277
457,000000	0,001261
456,000000	0,001555
455,000000	0,002575
454,000000	0,003370
453,000000	0,002868
452,000000	0,001335
451,000000	0,001438
450,000000	0,001909
449,000000	0,001567
448,000000	0,000909
447,000000	0,000880
446,000000	0,001537
445,000000	0,001800
444,000000	0,002032
443,000000	0,002359
442,000000	0,002373
441,000000	0,002175
440,000000	0,002591
439,000000	0,002863
438,000000	0,002468
437,000000	0,001668
436,000000	0,001045
435,000000	0,001210
434,000000	0,001392
433,000000	0,001334
432,000000	0,001445
431,000000	0,001920
430,000000	0,002555
429,000000	0,003130
428,000000	0,003216
427,000000	0,002604
426,000000	0,001852
425,000000	0,001500
424,000000	0,002154
423,000000	0,002607
422,000000	0,001857
421,000000	0,000623
420,000000	0,000277
419,000000	0,001054
418,000000	0,002150
417,000000	0,002392
416,000000	0,002025
415,000000	0,001739
414,000000	0,001518
413,000000	0,001135
412,000000	0,001104
411,000000	0,001675
410,000000	0,002338
409,000000	0,002304
408,000000	0,001974
407,000000	0,002003
406,000000	0,001728
405,000000	0,001126
404,000000	0,000937
403,000000	0,000731
402,000000	0,001102
401,000000	0,001568
400,000000	0,001983
399,000000	0,002521
398,000000	0,003016
397,000000	0,003384
396,000000	0,003444
395,000000	0,003455
394,000000	0,003467
393,000000	0,002763
392,000000	0,001478
391,000000	0,001538
390,000000	0,002080
389,000000	0,002253
388,000000	0,002312
387,000000	0,002389
386,000000	0,002351
385,000000	0,002310
384,000000	0,002589
383,000000	0,002997
382,000000	0,003145
381,000000	0,002945
380,000000	0,002431
379,000000	0,002126
378,000000	0,002694
377,000000	0,002918
376,000000	0,002463
375,000000	0,001880
374,000000	0,001476
373,000000	0,001664
372,000000	0,002689
371,000000	0,003531
370,000000	0,003205
369,000000	0,001726
368,000000	0,000150
367,000000	0,001367
366,000000	0,001630
365,000000	0,001505
364,000000	0,000626
363,000000	0,001199
362,000000	0,002710
361,000000	0,003100
360,000000	0,002106
359,000000	0,000657
358,000000	0,001408
357,000000	0,001999
356,000000	0,002506
355,000000	0,003300
354,000000	0,003309
353,000000	0,001861
352,000000	0,000314
351,000000	0,000506
350,000000	0,001094
349,000000	0,002929
348,000000	0,003827
347,000000	0,003251
346,000000	0,001757
345,000000	0,001242
344,000000	0,001808
343,000000	0,001839
342,000000	0,001771
341,000000	0,001554
340,000000	0,001748
339,000000	0,001783
338,000000	0,001627
337,000000	0,001555
336,000000	0,000874
335,000000	0,001391
334,000000	0,001369
333,000000	0,000715
332,000000	0,000944
331,000000	0,001158
330,000000	0,001776
329,000000	0,002450
328,000000	0,002601
327,000000	0,003192
326,000000	0,004078
325,000000	0,004194
324,000000	0,003727
323,000000	0,003330
322,000000	0,003344
321,000000	0,003603
320,000000	0,003406
319,000000	0,002677
318,000000	0,002721
317,000000	0,003085
316,000000	0,002468
315,000000	0,000688
314,000000	0,002669
313,000000	0,002752
312,000000	0,000586
311,000000	0,004267
310,000000	0,004552
309,000000	0,002507
308,000000	0,000770
307,000000	0,000569
306,000000	0,000803
305,000000	0,001723
304,000000	0,002664
303,000000	0,002639
302,000000	0,002161
301,000000	0,002258
300,000000	0,003097
