PE IR       SUBTECH     SPECTRUM    ASCII       PEDS        4.00        
   -1
h2o.ASC
25/06/17
09:22:42.00
25/06/17
09:22:42.00
Praktikum
Sample 01
300,000000
#HDR
-1
-1
#GR
cm-1
EGY
1.0
0.0
4000,000000
-1,000000
3701
8
63,462826
0,004282
#DATA
4000,000000	45,878161
3999,000000	45,882852
3998,000000	45,870286
3997,000000	45,848748
3996,000000	45,835322
3995,000000	45,839956
3994,000000	45,855083
3993,000000	45,867116
3992,000000	45,876454
3991,000000	45,899759
3990,000000	45,949362
3989,000000	46,015704
3988,000000	46,074268
3987,000000	46,106780
3986,000000	46,112475
3985,000000	46,103136
3984,000000	46,093947
3983,000000	46,097987
3982,000000	46,120867
3981,000000	46,154358
3980,000000	46,177896
3979,000000	46,171536
3978,000000	46,132095
3977,000000	46,077749
3976,000000	46,036459
3975,000000	46,028439
3974,000000	46,054749
3973,000000	46,100289
3972,000000	46,148231
3971,000000	46,193081
3970,000000	46,241917
3969,000000	46,303071
3968,000000	46,370765
3967,000000	46,418982
3966,000000	46,414274
3965,000000	46,344084
3964,000000	46,239355
3963,000000	46,161970
3962,000000	46,158250
3961,000000	46,221768
3960,000000	46,305321
3959,000000	46,367878
3958,000000	46,404803
3957,000000	46,432654
3956,000000	46,454532
3955,000000	46,446072
3954,000000	46,368907
3953,000000	46,196492
3952,000000	45,941185
3951,000000	45,672982
3950,000000	45,503750
3949,000000	45,519200
3948,000000	45,691689
3947,000000	45,862985
3946,000000	45,861102
3945,000000	45,667055
3944,000000	45,464678
3943,000000	45,487694
3942,000000	45,798235
3941,000000	46,239520
3940,000000	46,604030
3939,000000	46,802708
3938,000000	46,848910
3937,000000	46,731505
3936,000000	46,392601
3935,000000	45,852382
3934,000000	45,292969
3933,000000	44,970167
3932,000000	45,031313
3931,000000	45,416633
3930,000000	45,897876
3929,000000	46,202677
3928,000000	46,177011
3927,000000	45,896762
3926,000000	45,613620
3925,000000	45,545748
3924,000000	45,683185
3923,000000	45,811814
3922,000000	45,718692
3921,000000	45,363286
3920,000000	44,892173
3919,000000	44,546300
3918,000000	44,553095
3917,000000	45,006343
3916,000000	45,783024
3915,000000	46,594791
3914,000000	47,175432
3913,000000	47,455417
3912,000000	47,540492
3911,000000	47,529136
3910,000000	47,363079
3909,000000	46,845338
3908,000000	45,803125
3907,000000	44,279735
3906,000000	42,606045
3905,000000	41,249267
3904,000000	40,513071
3903,000000	40,372653
3902,000000	40,626832
3901,000000	41,186511
3900,000000	42,144664
3899,000000	43,526786
3898,000000	45,060729
3897,000000	46,247249
3896,000000	46,647828
3895,000000	46,131487
3894,000000	44,985497
3893,000000	43,870536
3892,000000	43,486938
3891,000000	44,000883
3890,000000	44,752958
3889,000000	44,803208
3888,000000	43,881177
3887,000000	42,733806
3886,000000	42,347000
3885,000000	42,905100
3884,000000	43,671982
3883,000000	43,883745
3882,000000	43,592654
3881,000000	43,535442
3880,000000	44,236808
3879,000000	45,387308
3878,000000	46,140579
3877,000000	45,978264
3876,000000	45,175031
3875,000000	44,329855
3874,000000	43,605899
3873,000000	42,675391
3872,000000	41,458263
3871,000000	40,574895
3870,000000	40,737891
3869,000000	41,817565
3868,000000	42,866560
3867,000000	43,126125
3866,000000	42,769699
3865,000000	42,553068
3864,000000	42,956018
3863,000000	43,875635
3862,000000	44,945463
3861,000000	45,861339
3860,000000	46,327227
3859,000000	45,893232
3858,000000	44,070154
3857,000000	40,764104
3856,000000	36,728475
3855,000000	33,511274
3854,000000	32,640363
3853,000000	34,565966
3852,000000	38,334630
3851,000000	42,328489
3850,000000	45,356792
3849,000000	47,074076
3848,000000	47,652198
3847,000000	47,363939
3846,000000	46,525138
3845,000000	45,518328
3844,000000	44,621930
3843,000000	43,805021
3842,000000	42,804428
3841,000000	41,471402
3840,000000	40,065598
3839,000000	39,175077
3838,000000	39,296689
3837,000000	40,401752
3836,000000	41,914940
3835,000000	43,169441
3834,000000	43,919772
3833,000000	44,422031
3832,000000	45,032545
3831,000000	45,791675
3830,000000	46,405607
3829,000000	46,625618
3828,000000	46,552403
3827,000000	46,453813
3826,000000	46,262373
3825,000000	45,447544
3824,000000	43,665467
3823,000000	41,511850
3822,000000	40,257069
3821,000000	40,585945
3820,000000	41,754741
3819,000000	42,381725
3818,000000	42,002276
3817,000000	41,564248
3816,000000	42,282798
3815,000000	44,301277
3814,000000	46,675913
3813,000000	48,360878
3812,000000	48,899749
3811,000000	48,286741
3810,000000	46,734250
3809,000000	44,821134
3808,000000	43,498966
3807,000000	43,398287
3806,000000	44,037762
3805,000000	44,131308
3804,000000	42,956669
3803,000000	41,283848
3802,000000	40,636565
3801,000000	41,671234
3800,000000	43,576760
3799,000000	45,080038
3798,000000	45,768173
3797,000000	46,186359
3796,000000	46,934623
3795,000000	48,000278
3794,000000	48,962789
3793,000000	49,530969
3792,000000	49,735490
3791,000000	49,754080
3790,000000	49,699554
3789,000000	49,561091
3788,000000	49,287077
3787,000000	48,929606
3786,000000	48,671457
3785,000000	48,646027
3784,000000	48,712293
3783,000000	48,530907
3782,000000	47,946893
3781,000000	47,255457
3780,000000	46,995806
3779,000000	47,449476
3778,000000	48,387965
3777,000000	49,310735
3776,000000	49,853408
3775,000000	49,903985
3774,000000	49,422292
3773,000000	48,390950
3772,000000	47,061539
3771,000000	46,031446
3770,000000	45,785592
3769,000000	46,188139
3768,000000	46,672619
3767,000000	46,960419
3766,000000	47,299859
3765,000000	47,899560
3764,000000	48,416594
3763,000000	48,302035
3762,000000	47,484744
3761,000000	46,477371
3760,000000	45,871746
3759,000000	45,901810
3758,000000	46,360813
3757,000000	46,670997
3756,000000	46,105044
3755,000000	44,278114
3754,000000	41,538128
3753,000000	38,798406
3752,000000	36,999101
3751,000000	36,695357
3750,000000	37,796647
3749,000000	39,357567
3748,000000	39,921128
3747,000000	38,739596
3746,000000	36,809558
3745,000000	36,199099
3744,000000	38,028498
3743,000000	41,389154
3742,000000	44,342228
3741,000000	45,586599
3740,000000	45,018927
3739,000000	43,212431
3738,000000	40,967227
3737,000000	39,164889
3736,000000	38,418059
3735,000000	38,702956
3734,000000	39,605386
3733,000000	40,909592
3732,000000	42,622114
3731,000000	44,450811
3730,000000	45,695907
3729,000000	45,909849
3728,000000	45,405985
3727,000000	44,897895
3726,000000	44,781705
3725,000000	44,955797
3724,000000	45,218905
3723,000000	45,576842
3722,000000	46,129063
3721,000000	46,858945
3720,000000	47,644075
3719,000000	48,380750
3718,000000	48,949261
3717,000000	49,057228
3716,000000	48,290591
3715,000000	46,507620
3714,000000	44,194178
3713,000000	42,298026
3712,000000	41,607178
3711,000000	42,255419
3710,000000	43,806158
3709,000000	45,663004
3708,000000	47,332866
3707,000000	48,452714
3706,000000	48,780811
3705,000000	48,319893
3704,000000	47,417523
3703,000000	46,674208
3702,000000	46,619455
3701,000000	47,326975
3700,000000	48,354723
3699,000000	49,143184
3698,000000	49,490156
3697,000000	49,551076
3696,000000	49,415661
3695,000000	48,883757
3694,000000	47,724752
3693,000000	45,979430
3692,000000	43,950019
3691,000000	42,111489
3690,000000	41,119196
3689,000000	41,606651
3688,000000	43,627316
3687,000000	46,375023
3686,000000	48,738375
3685,000000	50,114012
3684,000000	50,576610
3683,000000	50,433888
3682,000000	49,894136
3681,000000	49,027519
3680,000000	47,694266
3679,000000	45,571951
3678,000000	42,735659
3677,000000	40,219312
3676,000000	39,454215
3675,000000	40,742687
3674,000000	42,661929
3673,000000	43,444713
3672,000000	42,810333
3671,000000	42,126362
3670,000000	42,822863
3669,000000	45,019819
3668,000000	47,723375
3667,000000	49,911056
3666,000000	51,198309
3665,000000	51,737456
3664,000000	51,852837
3663,000000	51,824245
3662,000000	51,754441
3661,000000	51,480229
3660,000000	50,688788
3659,000000	49,299177
3658,000000	47,802332
3657,000000	47,029119
3656,000000	47,345484
3655,000000	48,066884
3654,000000	47,873848
3653,000000	46,024086
3652,000000	43,085168
3651,000000	40,461971
3650,000000	39,319188
3649,000000	39,975786
3648,000000	42,073442
3647,000000	44,919716
3646,000000	47,682111
3645,000000	49,663586
3644,000000	50,665121
3643,000000	51,004015
3642,000000	51,100591
3641,000000	51,128268
3640,000000	51,085329
3639,000000	50,988763
3638,000000	50,826609
3637,000000	50,490658
3636,000000	49,956492
3635,000000	49,378864
3634,000000	48,738633
3633,000000	47,532030
3632,000000	45,254652
3631,000000	42,353868
3630,000000	40,319424
3629,000000	40,492738
3628,000000	42,813769
3627,000000	45,935450
3626,000000	48,432291
3625,000000	49,697179
3624,000000	49,787541
3623,000000	48,924776
3622,000000	47,420484
3621,000000	45,876435
3620,000000	45,048277
3619,000000	45,327979
3618,000000	46,387392
3617,000000	47,428982
3616,000000	47,842278
3615,000000	47,638635
3614,000000	47,264098
3613,000000	47,039352
3612,000000	46,871681
3611,000000	46,550133
3610,000000	46,207826
3609,000000	46,305316
3608,000000	47,126060
3607,000000	48,428152
3606,000000	49,642584
3605,000000	50,335553
3604,000000	50,432768
3603,000000	50,133999
3602,000000	49,742954
3601,000000	49,508356
3600,000000	49,476198
3599,000000	49,473134
3598,000000	49,304287
3597,000000	48,985212
3596,000000	48,754563
3595,000000	48,851909
3594,000000	49,278406
3593,000000	49,714769
3592,000000	49,668141
3591,000000	48,821487
3590,000000	47,400474
3589,000000	46,162286
3588,000000	45,882141
3587,000000	46,761014
3586,000000	48,329688
3585,000000	49,882473
3584,000000	50,955727
3583,000000	51,477612
3582,000000	51,626978
3581,000000	51,634258
3580,000000	51,647399
3579,000000	51,695891
3578,000000	51,746136
3577,000000	51,785691
3576,000000	51,842366
3575,000000	51,934881
3574,000000	52,022809
3573,000000	51,972419
3572,000000	51,548233
3571,000000	50,531476
3570,000000	48,989081
3569,000000	47,439258
3568,000000	46,601444
3567,000000	46,873122
3566,000000	48,028896
3565,000000	49,442750
3564,000000	50,562972
3563,000000	51,206556
3562,000000	51,503579
3561,000000	51,679111
3560,000000	51,877766
3559,000000	52,112184
3558,000000	52,304232
3557,000000	52,354673
3556,000000	52,204515
3555,000000	51,885985
3554,000000	51,549052
3553,000000	51,392904
3552,000000	51,489477
3551,000000	51,667832
3550,000000	51,638489
3549,000000	51,277969
3548,000000	50,764963
3547,000000	50,424957
3546,000000	50,465641
3545,000000	50,863665
3544,000000	51,440980
3543,000000	51,997531
3542,000000	52,397226
3541,000000	52,589151
3540,000000	52,587949
3539,000000	52,451156
3538,000000	52,278677
3537,000000	52,194025
3536,000000	52,265112
3535,000000	52,430688
3534,000000	52,539178
3533,000000	52,479377
3532,000000	52,254325
3531,000000	51,941912
3530,000000	51,631638
3529,000000	51,404868
3528,000000	51,308397
3527,000000	51,310127
3526,000000	51,328450
3525,000000	51,341057
3524,000000	51,427145
3523,000000	51,656812
3522,000000	51,975541
3521,000000	52,249558
3520,000000	52,408746
3519,000000	52,489678
3518,000000	52,551565
3517,000000	52,604643
3516,000000	52,628003
3515,000000	52,605623
3514,000000	52,521489
3513,000000	52,357128
3512,000000	52,132618
3511,000000	51,938839
3510,000000	51,886574
3509,000000	51,998548
3508,000000	52,154643
3507,000000	52,173443
3506,000000	51,974374
3505,000000	51,667514
3504,000000	51,470582
3503,000000	51,525828
3502,000000	51,794308
3501,000000	52,110019
3500,000000	52,320119
3499,000000	52,375605
3498,000000	52,330989
3497,000000	52,283972
3496,000000	52,303740
3495,000000	52,390015
3494,000000	52,488238
3493,000000	52,542677
3492,000000	52,529629
3491,000000	52,454202
3490,000000	52,344343
3489,000000	52,254264
3488,000000	52,237029
3487,000000	52,286249
3486,000000	52,322199
3485,000000	52,266165
3484,000000	52,127524
3483,000000	52,002956
3482,000000	51,989338
3481,000000	52,107181
3480,000000	52,294166
3479,000000	52,455132
3478,000000	52,527011
3477,000000	52,516893
3476,000000	52,485514
3475,000000	52,487195
3474,000000	52,527372
3473,000000	52,576294
3472,000000	52,607066
3471,000000	52,609733
3470,000000	52,585241
3469,000000	52,547673
3468,000000	52,523915
3467,000000	52,529418
3466,000000	52,546017
3465,000000	52,541529
3464,000000	52,512526
3463,000000	52,492973
3462,000000	52,516809
3461,000000	52,583910
3460,000000	52,664871
3459,000000	52,730098
3458,000000	52,770326
3457,000000	52,795417
3456,000000	52,818843
3455,000000	52,844533
3454,000000	52,869093
3453,000000	52,885728
3452,000000	52,871520
3451,000000	52,779037
3450,000000	52,578172
3449,000000	52,324788
3448,000000	52,155915
3447,000000	52,173867
3446,000000	52,340072
3445,000000	52,519342
3444,000000	52,624053
3443,000000	52,681211
3442,000000	52,756006
3441,000000	52,857039
3440,000000	52,944158
3439,000000	52,995434
3438,000000	53,027197
3437,000000	53,058422
3436,000000	53,088628
3435,000000	53,111820
3434,000000	53,129596
3433,000000	53,146233
3432,000000	53,165462
3431,000000	53,194672
3430,000000	53,240041
3429,000000	53,296344
3428,000000	53,350893
3427,000000	53,394968
3426,000000	53,419613
3425,000000	53,405284
3424,000000	53,336702
3423,000000	53,236392
3422,000000	53,167278
3421,000000	53,187470
3420,000000	53,302456
3419,000000	53,463854
3418,000000	53,609331
3417,000000	53,702140
3416,000000	53,743200
3415,000000	53,757705
3414,000000	53,770924
3413,000000	53,791553
3412,000000	53,814682
3411,000000	53,835853
3410,000000	53,856464
3409,000000	53,877205
3408,000000	53,894430
3407,000000	53,904627
3406,000000	53,907348
3405,000000	53,903907
3404,000000	53,899431
3403,000000	53,904387
3402,000000	53,923438
3401,000000	53,943566
3400,000000	53,947080
3399,000000	53,939576
3398,000000	53,948510
3397,000000	53,984323
3396,000000	54,019327
3395,000000	54,023015
3394,000000	54,009129
3393,000000	54,026874
3392,000000	54,104900
3391,000000	54,219314
3390,000000	54,319502
3389,000000	54,372153
3388,000000	54,377337
3387,000000	54,358082
3386,000000	54,344700
3385,000000	54,360455
3384,000000	54,408461
3383,000000	54,470782
3382,000000	54,524643
3381,000000	54,560418
3380,000000	54,583767
3379,000000	54,604174
3378,000000	54,625709
3377,000000	54,647545
3376,000000	54,668825
3375,000000	54,690119
3374,000000	54,710292
3373,000000	54,723980
3372,000000	54,724373
3371,000000	54,708796
3370,000000	54,680880
3369,000000	54,648377
3368,000000	54,621958
3367,000000	54,614418
3366,000000	54,633747
3365,000000	54,673486
3364,000000	54,715937
3363,000000	54,749428
3362,000000	54,778545
3361,000000	54,812670
3360,000000	54,849058
3359,000000	54,875218
3358,000000	54,886875
3357,000000	54,895805
3356,000000	54,917232
3355,000000	54,953749
3354,000000	54,994003
3353,000000	55,025162
3352,000000	55,045038
3351,000000	55,062283
3350,000000	55,085552
3349,000000	55,114066
3348,000000	55,140315
3347,000000	55,159841
3346,000000	55,174112
3345,000000	55,185159
3344,000000	55,193430
3343,000000	55,201029
3342,000000	55,209777
3341,000000	55,213848
3340,000000	55,202649
3339,000000	55,176302
3338,000000	55,152784
3337,000000	55,154021
3336,000000	55,187481
3335,000000	55,243677
3334,000000	55,305977
3333,000000	55,358729
3332,000000	55,391806
3331,000000	55,404524
3330,000000	55,404134
3329,000000	55,398412
3328,000000	55,392667
3327,000000	55,394021
3326,000000	55,410760
3325,000000	55,443379
3324,000000	55,482292
3323,000000	55,518130
3322,000000	55,548675
3321,000000	55,573744
3320,000000	55,591449
3319,000000	55,603427
3318,000000	55,614919
3317,000000	55,624618
3316,000000	55,624073
3315,000000	55,612818
3314,000000	55,603364
3313,000000	55,603041
3312,000000	55,601949
3311,000000	55,591125
3310,000000	55,583963
3309,000000	55,604042
3308,000000	55,655769
3307,000000	55,719602
3306,000000	55,774390
3305,000000	55,814009
3304,000000	55,842944
3303,000000	55,866597
3302,000000	55,887075
3301,000000	55,901631
3300,000000	55,905865
3299,000000	55,903085
3298,000000	55,905655
3297,000000	55,919636
3296,000000	55,933270
3295,000000	55,931117
3294,000000	55,916513
3293,000000	55,909886
3292,000000	55,925916
3291,000000	55,961395
3290,000000	56,005130
3289,000000	56,048762
3288,000000	56,086204
3287,000000	56,111788
3286,000000	56,124156
3285,000000	56,128775
3284,000000	56,134027
3283,000000	56,145612
3282,000000	56,162956
3281,000000	56,178175
3280,000000	56,180326
3279,000000	56,164545
3278,000000	56,136399
3277,000000	56,107156
3276,000000	56,088554
3275,000000	56,092032
3274,000000	56,124887
3273,000000	56,182029
3272,000000	56,246796
3271,000000	56,304258
3270,000000	56,349841
3269,000000	56,383329
3268,000000	56,402937
3267,000000	56,411034
3266,000000	56,417761
3265,000000	56,431207
3264,000000	56,448709
3263,000000	56,463448
3262,000000	56,474400
3261,000000	56,484004
3260,000000	56,491206
3259,000000	56,492654
3258,000000	56,487127
3257,000000	56,476249
3256,000000	56,466903
3255,000000	56,474326
3254,000000	56,512068
3253,000000	56,573452
3252,000000	56,632957
3251,000000	56,670852
3250,000000	56,685444
3249,000000	56,678326
3248,000000	56,645523
3247,000000	56,596945
3246,000000	56,567664
3245,000000	56,588940
3244,000000	56,652607
3243,000000	56,720567
3242,000000	56,765892
3241,000000	56,789285
3240,000000	56,801711
3239,000000	56,808943
3238,000000	56,814747
3237,000000	56,823505
3236,000000	56,834360
3235,000000	56,842394
3234,000000	56,848248
3233,000000	56,858401
3232,000000	56,874645
3231,000000	56,891640
3230,000000	56,906910
3229,000000	56,926110
3228,000000	56,955394
3227,000000	56,993424
3226,000000	57,032044
3225,000000	57,060958
3224,000000	57,071206
3223,000000	57,059767
3222,000000	57,034892
3221,000000	57,015625
3220,000000	57,021066
3219,000000	57,053899
3218,000000	57,093053
3217,000000	57,110714
3216,000000	57,102776
3215,000000	57,096412
3214,000000	57,117358
3213,000000	57,156202
3212,000000	57,183344
3211,000000	57,192400
3210,000000	57,208966
3209,000000	57,251832
3208,000000	57,307568
3207,000000	57,352034
3206,000000	57,380137
3205,000000	57,401044
3204,000000	57,418071
3203,000000	57,427139
3202,000000	57,425590
3201,000000	57,411824
3200,000000	57,386187
3199,000000	57,362323
3198,000000	57,365826
3197,000000	57,408739
3196,000000	57,472916
3195,000000	57,529605
3194,000000	57,567676
3193,000000	57,593153
3192,000000	57,612419
3191,000000	57,627884
3190,000000	57,642124
3189,000000	57,653237
3188,000000	57,653028
3187,000000	57,641409
3186,000000	57,635678
3185,000000	57,653761
3184,000000	57,691930
3183,000000	57,728008
3182,000000	57,741378
3181,000000	57,726040
3180,000000	57,693791
3179,000000	57,673089
3178,000000	57,692166
3177,000000	57,751097
3176,000000	57,818733
3175,000000	57,865732
3174,000000	57,891474
3173,000000	57,910042
3172,000000	57,925304
3171,000000	57,934077
3170,000000	57,941955
3169,000000	57,957843
3168,000000	57,979197
3167,000000	57,997836
3166,000000	58,014512
3165,000000	58,034632
3164,000000	58,055543
3163,000000	58,071517
3162,000000	58,085647
3161,000000	58,104159
3160,000000	58,124440
3159,000000	58,140668
3158,000000	58,155271
3157,000000	58,172611
3156,000000	58,187589
3155,000000	58,193593
3154,000000	58,196370
3153,000000	58,207409
3152,000000	58,227929
3151,000000	58,251107
3150,000000	58,274919
3149,000000	58,301034
3148,000000	58,325541
3147,000000	58,342899
3146,000000	58,355481
3145,000000	58,369005
3144,000000	58,382590
3143,000000	58,392732
3142,000000	58,402365
3141,000000	58,416740
3140,000000	58,435359
3139,000000	58,455605
3138,000000	58,476193
3137,000000	58,489059
3136,000000	58,479170
3135,000000	58,447221
3134,000000	58,423279
3133,000000	58,440332
3132,000000	58,495953
3131,000000	58,554445
3130,000000	58,585130
3129,000000	58,587694
3128,000000	58,580639
3127,000000	58,577488
3126,000000	58,577037
3125,000000	58,570788
3124,000000	58,557700
3123,000000	58,550703
3122,000000	58,563210
3121,000000	58,588773
3120,000000	58,604967
3119,000000	58,601836
3118,000000	58,595116
3117,000000	58,605642
3116,000000	58,637250
3115,000000	58,682505
3114,000000	58,735346
3113,000000	58,787259
3112,000000	58,823475
3111,000000	58,838299
3110,000000	58,845727
3109,000000	58,862680
3108,000000	58,888759
3107,000000	58,912056
3106,000000	58,924599
3105,000000	58,921267
3104,000000	58,896955
3103,000000	58,860654
3102,000000	58,842170
3101,000000	58,864505
3100,000000	58,913735
3099,000000	58,952367
3098,000000	58,962240
3097,000000	58,961267
3096,000000	58,979319
3095,000000	59,028911
3094,000000	59,098030
3093,000000	59,162308
3092,000000	59,203374
3091,000000	59,221757
3090,000000	59,231017
3089,000000	59,239560
3088,000000	59,245239
3087,000000	59,248225
3086,000000	59,255294
3085,000000	59,264878
3084,000000	59,262426
3083,000000	59,240915
3082,000000	59,214894
3081,000000	59,204227
3080,000000	59,214718
3079,000000	59,243766
3078,000000	59,291129
3077,000000	59,350548
3076,000000	59,402773
3075,000000	59,433088
3074,000000	59,447646
3073,000000	59,459281
3072,000000	59,465051
3071,000000	59,451253
3070,000000	59,413634
3069,000000	59,360716
3068,000000	59,305293
3067,000000	59,264598
3066,000000	59,259348
3065,000000	59,297035
3064,000000	59,360153
3063,000000	59,421971
3062,000000	59,467946
3061,000000	59,493220
3060,000000	59,491811
3059,000000	59,466061
3058,000000	59,439403
3057,000000	59,442005
3056,000000	59,483046
3055,000000	59,545750
3054,000000	59,604824
3053,000000	59,640366
3052,000000	59,643573
3051,000000	59,624546
3050,000000	59,610455
3049,000000	59,623295
3048,000000	59,659921
3047,000000	59,700609
3046,000000	59,731720
3045,000000	59,751415
3044,000000	59,761273
3043,000000	59,764690
3042,000000	59,769776
3041,000000	59,781904
3040,000000	59,794656
3039,000000	59,795715
3038,000000	59,780097
3037,000000	59,751248
3036,000000	59,713248
3035,000000	59,668710
3034,000000	59,623254
3033,000000	59,588519
3032,000000	59,580435
3031,000000	59,610178
3030,000000	59,667741
3029,000000	59,718039
3028,000000	59,728280
3027,000000	59,700822
3026,000000	59,666251
3025,000000	59,643552
3024,000000	59,624759
3023,000000	59,599907
3022,000000	59,574070
3021,000000	59,550622
3020,000000	59,520076
3019,000000	59,480157
3018,000000	59,450180
3017,000000	59,448988
3016,000000	59,472486
3015,000000	59,507070
3014,000000	59,553163
3013,000000	59,620210
3012,000000	59,708695
3011,000000	59,810839
3010,000000	59,918166
3009,000000	60,016700
3008,000000	60,085743
3007,000000	60,117538
3006,000000	60,130201
3005,000000	60,148766
3004,000000	60,180263
3003,000000	60,216110
3002,000000	60,248962
3001,000000	60,274859
3000,000000	60,288963
2999,000000	60,290804
2998,000000	60,287364
2997,000000	60,282695
2996,000000	60,273602
2995,000000	60,262816
2994,000000	60,263551
2993,000000	60,280653
2992,000000	60,299149
2991,000000	60,302797
2990,000000	60,294141
2989,000000	60,285702
2988,000000	60,281962
2987,000000	60,280241
2986,000000	60,278844
2985,000000	60,273501
2984,000000	60,255208
2983,000000	60,221630
2982,000000	60,182411
2981,000000	60,145799
2980,000000	60,109446
2979,000000	60,070135
2978,000000	60,029416
2977,000000	59,983665
2976,000000	59,922859
2975,000000	59,847570
2974,000000	59,772234
2973,000000	59,702197
2972,000000	59,622960
2971,000000	59,521936
2970,000000	59,406283
2969,000000	59,288937
2968,000000	59,172639
2967,000000	59,059237
2966,000000	58,958919
2965,000000	58,877375
2964,000000	58,806913
2963,000000	58,742305
2962,000000	58,691531
2961,000000	58,659578
2960,000000	58,636446
2959,000000	58,613148
2958,000000	58,595496
2957,000000	58,589184
2956,000000	58,586114
2955,000000	58,578771
2954,000000	58,573660
2953,000000	58,576661
2952,000000	58,577823
2951,000000	58,565115
2950,000000	58,540726
2949,000000	58,511003
2948,000000	58,472178
2947,000000	58,418996
2946,000000	58,355727
2945,000000	58,285997
2944,000000	58,203779
2943,000000	58,105274
2942,000000	57,997978
2941,000000	57,887334
2940,000000	57,768217
2939,000000	57,640451
2938,000000	57,518265
2937,000000	57,412597
2936,000000	57,317646
2935,000000	57,225887
2934,000000	57,141417
2933,000000	57,066374
2932,000000	56,990287
2931,000000	56,906784
2930,000000	56,827314
2929,000000	56,765590
2928,000000	56,722370
2927,000000	56,698267
2926,000000	56,705876
2925,000000	56,755989
2924,000000	56,844379
2923,000000	56,964690
2922,000000	57,119749
2921,000000	57,307265
2920,000000	57,510151
2919,000000	57,713726
2918,000000	57,919415
2917,000000	58,128353
2916,000000	58,327795
2915,000000	58,507162
2914,000000	58,672288
2913,000000	58,830177
2912,000000	58,974289
2911,000000	59,098677
2910,000000	59,211358
2909,000000	59,319748
2908,000000	59,417674
2907,000000	59,500705
2906,000000	59,579159
2905,000000	59,661640
2904,000000	59,740718
2903,000000	59,808912
2902,000000	59,873622
2901,000000	59,941988
2900,000000	60,006099
2899,000000	60,058309
2898,000000	60,106415
2897,000000	60,159055
2896,000000	60,210572
2895,000000	60,254660
2894,000000	60,298104
2893,000000	60,346413
2892,000000	60,390591
2891,000000	60,422863
2890,000000	60,450936
2889,000000	60,482291
2888,000000	60,509246
2887,000000	60,523929
2886,000000	60,533100
2885,000000	60,543479
2884,000000	60,547439
2883,000000	60,537928
2882,000000	60,522593
2881,000000	60,508426
2880,000000	60,487473
2879,000000	60,452133
2878,000000	60,409445
2877,000000	60,365782
2876,000000	60,313308
2875,000000	60,246395
2874,000000	60,175344
2873,000000	60,108132
2872,000000	60,034186
2871,000000	59,941605
2870,000000	59,835128
2869,000000	59,721531
2868,000000	59,594069
2867,000000	59,448080
2866,000000	59,297643
2865,000000	59,159528
2864,000000	59,035655
2863,000000	58,926253
2862,000000	58,845032
2861,000000	58,804123
2860,000000	58,797492
2859,000000	58,814803
2858,000000	58,857967
2857,000000	58,928556
2856,000000	59,014534
2855,000000	59,105740
2854,000000	59,208977
2853,000000	59,332191
2852,000000	59,468009
2851,000000	59,607145
2850,000000	59,753711
2849,000000	59,911787
2848,000000	60,071542
2847,000000	60,223661
2846,000000	60,372703
2845,000000	60,522029
2844,000000	60,660849
2843,000000	60,780581
2842,000000	60,889081
2841,000000	60,994311
2840,000000	61,089977
2839,000000	61,171423
2838,000000	61,248559
2837,000000	61,328088
2836,000000	61,399909
2835,000000	61,456596
2834,000000	61,509018
2833,000000	61,567053
2832,000000	61,621997
2831,000000	61,664635
2830,000000	61,703368
2829,000000	61,747580
2828,000000	61,789825
2827,000000	61,821535
2826,000000	61,850384
2825,000000	61,884841
2824,000000	61,917690
2823,000000	61,941493
2822,000000	61,964284
2821,000000	61,993612
2820,000000	62,020883
2819,000000	62,038183
2818,000000	62,054171
2817,000000	62,077109
2816,000000	62,098434
2815,000000	62,109653
2814,000000	62,118943
2813,000000	62,134415
2812,000000	62,148122
2811,000000	62,152900
2810,000000	62,158367
2809,000000	62,172924
2808,000000	62,186943
2807,000000	62,190871
2806,000000	62,192844
2805,000000	62,201559
2804,000000	62,208805
2803,000000	62,206399
2802,000000	62,203394
2801,000000	62,208775
2800,000000	62,214436
2799,000000	62,212733
2798,000000	62,213421
2797,000000	62,225437
2796,000000	62,238848
2795,000000	62,243460
2794,000000	62,248034
2793,000000	62,262678
2792,000000	62,279626
2791,000000	62,289942
2790,000000	62,302611
2789,000000	62,327895
2788,000000	62,357564
2787,000000	62,380589
2786,000000	62,402430
2785,000000	62,430602
2784,000000	62,457434
2783,000000	62,475123
2782,000000	62,492261
2781,000000	62,517231
2780,000000	62,541087
2779,000000	62,554628
2778,000000	62,566113
2777,000000	62,584616
2776,000000	62,602367
2775,000000	62,611228
2774,000000	62,619758
2773,000000	62,636304
2772,000000	62,651811
2771,000000	62,657463
2770,000000	62,662387
2769,000000	62,675756
2768,000000	62,688700
2767,000000	62,691901
2766,000000	62,694099
2765,000000	62,704804
2764,000000	62,715811
2763,000000	62,718112
2762,000000	62,720074
2761,000000	62,730476
2760,000000	62,740561
2759,000000	62,741465
2758,000000	62,742211
2757,000000	62,752018
2756,000000	62,761946
2755,000000	62,762663
2754,000000	62,762818
2753,000000	62,771567
2752,000000	62,780101
2751,000000	62,779204
2750,000000	62,777899
2749,000000	62,786014
2748,000000	62,795413
2747,000000	62,796967
2746,000000	62,798773
2745,000000	62,809114
2744,000000	62,818992
2743,000000	62,819933
2742,000000	62,821331
2741,000000	62,831737
2740,000000	62,841301
2739,000000	62,841086
2738,000000	62,841378
2737,000000	62,851822
2736,000000	62,862313
2735,000000	62,862675
2734,000000	62,862631
2733,000000	62,872716
2732,000000	62,883861
2731,000000	62,885621
2730,000000	62,886233
2729,000000	62,894950
2728,000000	62,903037
2727,000000	62,901960
2726,000000	62,901993
2725,000000	62,912663
2724,000000	62,923540
2723,000000	62,924263
2722,000000	62,924995
2721,000000	62,936627
2720,000000	62,949548
2719,000000	62,952619
2718,000000	62,954382
2717,000000	62,964809
2716,000000	62,974638
2715,000000	62,974090
2714,000000	62,973221
2713,000000	62,982761
2712,000000	62,992856
2711,000000	62,992372
2710,000000	62,990671
2709,000000	62,999130
2708,000000	63,009088
2707,000000	63,009727
2706,000000	63,009801
2705,000000	63,020075
2704,000000	63,032014
2703,000000	63,035107
2702,000000	63,037837
2701,000000	63,050227
2700,000000	63,063493
2699,000000	63,067799
2698,000000	63,072500
2697,000000	63,087657
2696,000000	63,103554
2695,000000	63,109306
2694,000000	63,113764
2693,000000	63,126956
2692,000000	63,139531
2691,000000	63,141534
2690,000000	63,143185
2689,000000	63,155232
2688,000000	63,167474
2687,000000	63,168381
2686,000000	63,167477
2685,000000	63,176413
2684,000000	63,186285
2683,000000	63,186039
2682,000000	63,184695
2681,000000	63,193238
2680,000000	63,202570
2679,000000	63,201663
2678,000000	63,199491
2677,000000	63,206924
2676,000000	63,214979
2675,000000	63,213075
2674,000000	63,210699
2673,000000	63,218747
2672,000000	63,227454
2671,000000	63,225134
2670,000000	63,220994
2669,000000	63,226778
2668,000000	63,234065
2667,000000	63,231873
2666,000000	63,228800
2665,000000	63,235405
2664,000000	63,242657
2663,000000	63,240037
2662,000000	63,237198
2661,000000	63,245330
2660,000000	63,254855
2659,000000	63,253982
2658,000000	63,251355
2657,000000	63,258377
2656,000000	63,266961
2655,000000	63,266957
2654,000000	63,267108
2653,000000	63,277013
2652,000000	63,286442
2651,000000	63,284867
2650,000000	63,282957
2649,000000	63,292377
2648,000000	63,303095
2647,000000	63,302977
2646,000000	63,301306
2645,000000	63,310110
2644,000000	63,320924
2643,000000	63,322350
2642,000000	63,322692
2641,000000	63,332043
2640,000000	63,340902
2639,000000	63,339029
2638,000000	63,336832
2637,000000	63,345737
2636,000000	63,355860
2635,000000	63,355640
2634,000000	63,354611
2633,000000	63,363965
2632,000000	63,373654
2631,000000	63,371969
2630,000000	63,368500
2629,000000	63,375161
2628,000000	63,382814
2627,000000	63,380232
2626,000000	63,376810
2625,000000	63,383588
2624,000000	63,391029
2623,000000	63,388317
2622,000000	63,385789
2621,000000	63,394671
2620,000000	63,404381
2619,000000	63,402756
2618,000000	63,399545
2617,000000	63,406681
2616,000000	63,414920
2615,000000	63,413188
2614,000000	63,411087
2613,000000	63,418771
2612,000000	63,424995
2611,000000	63,418708
2610,000000	63,412201
2609,000000	63,418437
2608,000000	63,426145
2607,000000	63,421818
2606,000000	63,415683
2605,000000	63,420845
2604,000000	63,426752
2603,000000	63,419702
2602,000000	63,409287
2601,000000	63,409282
2600,000000	63,411027
2599,000000	63,401966
2598,000000	63,391033
2597,000000	63,390414
2596,000000	63,390957
2595,000000	63,381198
2594,000000	63,371805
2593,000000	63,375500
2592,000000	63,381890
2591,000000	63,377288
2590,000000	63,370991
2589,000000	63,376252
2588,000000	63,384560
2587,000000	63,383783
2586,000000	63,382990
2585,000000	63,393511
2584,000000	63,404835
2583,000000	63,404640
2582,000000	63,403722
2581,000000	63,415433
2580,000000	63,429375
2579,000000	63,431185
2578,000000	63,429351
2577,000000	63,436819
2576,000000	63,445157
2575,000000	63,442668
2574,000000	63,439230
2573,000000	63,447145
2572,000000	63,456358
2571,000000	63,453814
2570,000000	63,449016
2569,000000	63,454551
2568,000000	63,461016
2567,000000	63,456275
2566,000000	63,450543
2565,000000	63,456252
2564,000000	63,462826
2563,000000	63,457164
2562,000000	63,449568
2561,000000	63,453466
2560,000000	63,458923
2559,000000	63,452959
2558,000000	63,445715
2557,000000	63,450562
2556,000000	63,457244
2555,000000	63,452231
2554,000000	63,445484
2553,000000	63,450666
2552,000000	63,457756
2551,000000	63,452720
2550,000000	63,444974
2549,000000	63,448206
2548,000000	63,453405
2547,000000	63,447672
2546,000000	63,440886
2545,000000	63,446189
2544,000000	63,453373
2543,000000	63,448602
2542,000000	63,441656
2541,000000	63,446268
2540,000000	63,452715
2539,000000	63,447212
2538,000000	63,439528
2537,000000	63,443585
2536,000000	63,450051
2535,000000	63,445225
2534,000000	63,438657
2533,000000	63,444103
2532,000000	63,451912
2531,000000	63,448273
2530,000000	63,442541
2529,000000	63,448565
2528,000000	63,456711
2527,000000	63,452772
2526,000000	63,445673
2525,000000	63,449050
2524,000000	63,453857
2523,000000	63,446856
2522,000000	63,437737
2521,000000	63,440514
2520,000000	63,446180
2519,000000	63,441208
2518,000000	63,434523
2517,000000	63,438560
2516,000000	63,443126
2515,000000	63,434895
2514,000000	63,424569
2513,000000	63,426499
2512,000000	63,430594
2511,000000	63,422165
2510,000000	63,410599
2509,000000	63,410252
2508,000000	63,412021
2507,000000	63,402042
2506,000000	63,389669
2505,000000	63,389095
2504,000000	63,391288
2503,000000	63,382669
2502,000000	63,372620
2501,000000	63,374625
2500,000000	63,378719
2499,000000	63,370956
2498,000000	63,360956
2497,000000	63,362517
2496,000000	63,365851
2495,000000	63,357208
2494,000000	63,346865
2493,000000	63,349037
2492,000000	63,353425
2491,000000	63,345185
2490,000000	63,334147
2489,000000	63,334979
2488,000000	63,338062
2487,000000	63,329021
2486,000000	63,318062
2485,000000	63,320255
2484,000000	63,325874
2483,000000	63,319584
2482,000000	63,310208
2481,000000	63,312033
2480,000000	63,315296
2479,000000	63,305451
2478,000000	63,292720
2477,000000	63,292914
2476,000000	63,296776
2475,000000	63,288814
2474,000000	63,277748
2473,000000	63,278387
2472,000000	63,281426
2471,000000	63,271957
2470,000000	63,259868
2469,000000	63,261181
2468,000000	63,266914
2467,000000	63,260857
2466,000000	63,250968
2465,000000	63,252428
2464,000000	63,257046
2463,000000	63,249715
2462,000000	63,238431
2461,000000	63,237675
2460,000000	63,239179
2459,000000	63,229167
2458,000000	63,217459
2457,000000	63,219204
2456,000000	63,224734
2455,000000	63,217872
2454,000000	63,206996
2453,000000	63,207900
2452,000000	63,212710
2451,000000	63,206482
2450,000000	63,197456
2449,000000	63,200321
2448,000000	63,206088
2447,000000	63,199535
2446,000000	63,189866
2445,000000	63,193072
2444,000000	63,200206
2443,000000	63,194374
2442,000000	63,183346
2441,000000	63,183806
2440,000000	63,189061
2439,000000	63,183480
2438,000000	63,174057
2437,000000	63,175880
2436,000000	63,181388
2435,000000	63,174848
2434,000000	63,163288
2433,000000	63,162075
2432,000000	63,164345
2431,000000	63,155168
2430,000000	63,141678
2429,000000	63,138899
2428,000000	63,139911
2427,000000	63,130532
2426,000000	63,119002
2425,000000	63,120647
2424,000000	63,127086
2423,000000	63,121542
2422,000000	63,110748
2421,000000	63,110900
2420,000000	63,115486
2419,000000	63,108485
2418,000000	63,096219
2417,000000	63,094839
2416,000000	63,098827
2415,000000	63,092681
2414,000000	63,081807
2413,000000	63,080929
2412,000000	63,083840
2411,000000	63,075416
2410,000000	63,062338
2409,000000	63,060706
2408,000000	63,064547
2407,000000	63,057534
2406,000000	63,045237
2405,000000	63,044542
2404,000000	63,050931
2403,000000	63,047489
2402,000000	63,037387
2401,000000	63,036337
2400,000000	63,040868
2399,000000	63,035375
2398,000000	63,023111
2397,000000	63,019795
2396,000000	63,022382
2395,000000	63,014308
2394,000000	62,995484
2393,000000	62,976355
2392,000000	62,946354
2391,000000	62,874545
2390,000000	62,740006
2389,000000	62,527386
2388,000000	62,195188
2387,000000	61,679825
2386,000000	60,922456
2385,000000	59,883072
2384,000000	58,520392
2383,000000	56,800335
2382,000000	54,736859
2381,000000	52,387838
2380,000000	49,830003
2379,000000	47,140103
2378,000000	44,407088
2377,000000	41,725323
2376,000000	39,153737
2375,000000	36,709587
2374,000000	34,401612
2373,000000	32,254056
2372,000000	30,281871
2371,000000	28,477755
2370,000000	26,834108
2369,000000	25,364438
2368,000000	24,084117
2367,000000	22,977787
2366,000000	22,028029
2365,000000	21,249369
2364,000000	20,667971
2363,000000	20,275059
2362,000000	20,030233
2361,000000	19,933647
2360,000000	20,040039
2359,000000	20,390579
2358,000000	20,984179
2357,000000	21,825058
2356,000000	22,972167
2355,000000	24,499379
2354,000000	26,479596
2353,000000	29,037081
2352,000000	32,218252
2351,000000	35,603567
2350,000000	38,106146
2349,000000	38,553248
2348,000000	36,695661
2347,000000	33,562661
2346,000000	30,641703
2345,000000	28,751487
2344,000000	27,782655
2343,000000	27,294968
2342,000000	27,064031
2341,000000	27,041622
2340,000000	27,152693
2339,000000	27,306961
2338,000000	27,509463
2337,000000	27,788791
2336,000000	28,085313
2335,000000	28,291585
2334,000000	28,370985
2333,000000	28,385853
2332,000000	28,450802
2331,000000	28,698383
2330,000000	29,222259
2329,000000	29,986276
2328,000000	30,820360
2327,000000	31,549498
2326,000000	32,114610
2325,000000	32,575197
2324,000000	33,046701
2323,000000	33,661325
2322,000000	34,516150
2321,000000	35,616458
2320,000000	36,892184
2319,000000	38,267116
2318,000000	39,664463
2317,000000	40,958240
2316,000000	42,020095
2315,000000	42,854105
2314,000000	43,613050
2313,000000	44,446926
2312,000000	45,387573
2311,000000	46,400969
2310,000000	47,465588
2309,000000	48,558013
2308,000000	49,630363
2307,000000	50,657402
2306,000000	51,652735
2305,000000	52,602520
2304,000000	53,444569
2303,000000	54,153198
2302,000000	54,783019
2301,000000	55,389990
2300,000000	55,964715
2299,000000	56,486769
2298,000000	56,979521
2297,000000	57,463964
2296,000000	57,917622
2295,000000	58,324724
2294,000000	58,717440
2293,000000	59,119807
2292,000000	59,504058
2291,000000	59,846978
2290,000000	60,176373
2289,000000	60,518399
2288,000000	60,850981
2287,000000	61,150133
2286,000000	61,428142
2285,000000	61,678999
2284,000000	61,844176
2283,000000	61,886304
2282,000000	61,846606
2281,000000	61,785781
2280,000000	61,713873
2279,000000	61,625944
2278,000000	61,550986
2277,000000	61,512064
2276,000000	61,485004
2275,000000	61,445707
2274,000000	61,416305
2273,000000	61,417943
2272,000000	61,425937
2271,000000	61,416890
2270,000000	61,414553
2269,000000	61,441586
2268,000000	61,473684
2267,000000	61,487499
2266,000000	61,507482
2265,000000	61,557441
2264,000000	61,613035
2263,000000	61,648859
2262,000000	61,686669
2261,000000	61,748950
2260,000000	61,811501
2259,000000	61,850134
2258,000000	61,887973
2257,000000	61,949007
2256,000000	62,009813
2255,000000	62,045949
2254,000000	62,079836
2253,000000	62,135403
2252,000000	62,190142
2251,000000	62,220243
2250,000000	62,247520
2249,000000	62,293866
2248,000000	62,335427
2247,000000	62,349546
2246,000000	62,361768
2245,000000	62,397248
2244,000000	62,432224
2243,000000	62,441377
2242,000000	62,447771
2241,000000	62,476070
2240,000000	62,503329
2239,000000	62,505255
2238,000000	62,505676
2237,000000	62,529680
2236,000000	62,553616
2235,000000	62,551962
2234,000000	62,548058
2233,000000	62,568105
2232,000000	62,589602
2231,000000	62,586944
2230,000000	62,582457
2229,000000	62,601834
2228,000000	62,622776
2227,000000	62,619718
2226,000000	62,614205
2225,000000	62,630375
2224,000000	62,644663
2223,000000	62,631397
2222,000000	62,614104
2221,000000	62,619754
2220,000000	62,627412
2219,000000	62,612173
2218,000000	62,596211
2217,000000	62,603832
2216,000000	62,611964
2215,000000	62,595628
2214,000000	62,578479
2213,000000	62,586234
2212,000000	62,595581
2211,000000	62,580726
2210,000000	62,564971
2209,000000	62,573832
2208,000000	62,582646
2207,000000	62,564905
2206,000000	62,545374
2205,000000	62,552836
2204,000000	62,564615
2203,000000	62,552636
2202,000000	62,538326
2201,000000	62,548273
2200,000000	62,559755
2199,000000	62,545967
2198,000000	62,529937
2197,000000	62,538960
2196,000000	62,550491
2195,000000	62,537025
2194,000000	62,520767
2193,000000	62,528490
2192,000000	62,537873
2191,000000	62,522200
2190,000000	62,504436
2189,000000	62,511249
2188,000000	62,520021
2187,000000	62,504810
2186,000000	62,489891
2185,000000	62,501758
2184,000000	62,514539
2183,000000	62,499306
2182,000000	62,480377
2181,000000	62,487522
2180,000000	62,497373
2179,000000	62,480848
2178,000000	62,460744
2177,000000	62,466030
2176,000000	62,473812
2175,000000	62,454970
2174,000000	62,431576
2173,000000	62,431561
2172,000000	62,432536
2171,000000	62,408307
2170,000000	62,385179
2169,000000	62,393112
2168,000000	62,407231
2167,000000	62,395186
2166,000000	62,377235
2165,000000	62,380769
2164,000000	62,383241
2163,000000	62,359008
2162,000000	62,335968
2161,000000	62,344722
2160,000000	62,358261
2159,000000	62,342668
2158,000000	62,320745
2157,000000	62,324848
2156,000000	62,332805
2155,000000	62,313751
2154,000000	62,290254
2153,000000	62,293762
2152,000000	62,302217
2151,000000	62,285025
2150,000000	62,263626
2149,000000	62,266958
2148,000000	62,271678
2147,000000	62,249197
2146,000000	62,225866
2145,000000	62,233654
2144,000000	62,246789
2143,000000	62,229803
2142,000000	62,203871
2141,000000	62,201230
2140,000000	62,200429
2139,000000	62,170643
2138,000000	62,136930
2137,000000	62,135879
2136,000000	62,149051
2135,000000	62,143009
2134,000000	62,132568
2133,000000	62,142774
2132,000000	62,151284
2131,000000	62,131294
2130,000000	62,108154
2129,000000	62,112613
2128,000000	62,120750
2127,000000	62,101356
2126,000000	62,077113
2125,000000	62,079067
2124,000000	62,085050
2123,000000	62,065536
2122,000000	62,043725
2121,000000	62,049722
2120,000000	62,059452
2119,000000	62,040113
2118,000000	62,011406
2117,000000	62,002534
2116,000000	61,996769
2115,000000	61,974917
2114,000000	61,965219
2113,000000	61,989446
2112,000000	62,011050
2111,000000	61,995844
2110,000000	61,973637
2109,000000	61,979619
2108,000000	61,989366
2107,000000	61,972301
2106,000000	61,954732
2105,000000	61,966394
2104,000000	61,978462
2103,000000	61,959659
2102,000000	61,938446
2101,000000	61,947273
2100,000000	61,958580
2099,000000	61,940978
2098,000000	61,921882
2097,000000	61,932122
2096,000000	61,943583
2095,000000	61,925005
2094,000000	61,900373
2093,000000	61,890967
2092,000000	61,864712
2091,000000	61,807260
2090,000000	61,775702
2089,000000	61,809916
2088,000000	61,859194
2087,000000	61,866136
2086,000000	61,857494
2085,000000	61,875759
2084,000000	61,892960
2083,000000	61,871804
2082,000000	61,845151
2081,000000	61,851520
2080,000000	61,857171
2079,000000	61,825208
2078,000000	61,795370
2077,000000	61,811824
2076,000000	61,836908
2075,000000	61,823538
2074,000000	61,804739
2073,000000	61,825099
2072,000000	61,850354
2071,000000	61,835716
2070,000000	61,811885
2069,000000	61,808492
2068,000000	61,767703
2067,000000	61,643842
2066,000000	61,522670
2065,000000	61,521099
2064,000000	61,619944
2063,000000	61,706652
2062,000000	61,740804
2061,000000	61,764037
2060,000000	61,788912
2059,000000	61,791023
2058,000000	61,783898
2057,000000	61,799807
2056,000000	61,819006
2055,000000	61,806217
2054,000000	61,785499
2053,000000	61,796648
2052,000000	61,815700
2051,000000	61,802136
2050,000000	61,779849
2049,000000	61,788639
2048,000000	61,801870
2047,000000	61,778391
2046,000000	61,742456
2045,000000	61,725748
2044,000000	61,689093
2043,000000	61,600262
2042,000000	61,530228
2041,000000	61,563641
2040,000000	61,663119
2039,000000	61,727615
2038,000000	61,741804
2037,000000	61,758535
2036,000000	61,780422
2035,000000	61,770864
2034,000000	61,747879
2033,000000	61,756104
2032,000000	61,775215
2031,000000	61,756912
2030,000000	61,721170
2029,000000	61,719005
2028,000000	61,734319
2027,000000	61,720093
2026,000000	61,693336
2025,000000	61,697844
2024,000000	61,713077
2023,000000	61,695999
2022,000000	61,662188
2021,000000	61,624851
2020,000000	61,516775
2019,000000	61,301008
2018,000000	61,107378
2017,000000	61,113906
2016,000000	61,313709
2015,000000	61,531194
2014,000000	61,652173
2013,000000	61,703054
2012,000000	61,722358
2011,000000	61,699157
2010,000000	61,651242
2009,000000	61,636063
2008,000000	61,658053
2007,000000	61,666549
2006,000000	61,656044
2005,000000	61,669175
2004,000000	61,698362
2003,000000	61,689452
2002,000000	61,645861
2001,000000	61,624867
2000,000000	61,629098
1999,000000	61,613232
1998,000000	61,594404
1997,000000	61,619279
1996,000000	61,603026
1995,000000	61,362585
1994,000000	60,888881
1993,000000	60,461594
1992,000000	60,377914
1991,000000	60,632695
1990,000000	60,969269
1989,000000	61,189774
1988,000000	61,306245
1987,000000	61,410627
1986,000000	61,516081
1985,000000	61,574270
1984,000000	61,574674
1983,000000	61,558911
1982,000000	61,556403
1981,000000	61,556227
1980,000000	61,544105
1979,000000	61,528777
1978,000000	61,521613
1977,000000	61,516616
1976,000000	61,506034
1975,000000	61,496166
1974,000000	61,494797
1973,000000	61,498350
1972,000000	61,487633
1971,000000	61,411324
1970,000000	61,196392
1969,000000	60,848119
1968,000000	60,542123
1967,000000	60,511350
1966,000000	60,788231
1965,000000	61,140186
1964,000000	61,326616
1963,000000	61,337782
1962,000000	61,308626
1961,000000	61,301253
1960,000000	61,287923
1959,000000	61,267448
1958,000000	61,262476
1957,000000	61,248153
1956,000000	61,202340
1955,000000	61,181878
1954,000000	61,237366
1953,000000	61,310020
1952,000000	61,321757
1951,000000	61,297109
1950,000000	61,282236
1949,000000	61,232151
1948,000000	61,101959
1947,000000	60,929928
1946,000000	60,687031
1945,000000	60,217438
1944,000000	59,560760
1943,000000	59,165650
1942,000000	59,454095
1941,000000	60,244746
1940,000000	60,928795
1939,000000	61,187189
1938,000000	61,209866
1937,000000	61,232014
1936,000000	61,232188
1935,000000	61,157280
1934,000000	61,103113
1933,000000	61,133495
1932,000000	61,166251
1931,000000	61,148121
1930,000000	61,143104
1929,000000	61,177948
1928,000000	61,176597
1927,000000	61,066704
1926,000000	60,787281
1925,000000	60,283820
1924,000000	59,717387
1923,000000	59,499558
1922,000000	59,741492
1921,000000	59,847644
1920,000000	59,206150
1919,000000	58,212718
1918,000000	57,970692
1917,000000	58,866883
1916,000000	60,093518
1915,000000	60,765555
1914,000000	60,865516
1913,000000	60,781776
1912,000000	60,566478
1911,000000	60,157587
1910,000000	59,841515
1909,000000	59,932323
1908,000000	60,268085
1907,000000	60,490854
1906,000000	60,572811
1905,000000	60,680520
1904,000000	60,771410
1903,000000	60,726250
1902,000000	60,658670
1901,000000	60,722916
1900,000000	60,799298
1899,000000	60,687270
1898,000000	60,423075
1897,000000	60,155185
1896,000000	59,940349
1895,000000	59,864030
1894,000000	60,028462
1893,000000	60,179830
1892,000000	59,797591
1891,000000	58,897072
1890,000000	58,303846
1889,000000	58,662130
1888,000000	59,569818
1887,000000	60,183304
1886,000000	60,310565
1885,000000	60,351109
1884,000000	60,473424
1883,000000	60,510183
1882,000000	60,460633
1881,000000	60,498605
1880,000000	60,574518
1879,000000	60,520967
1878,000000	60,430280
1877,000000	60,487201
1876,000000	60,587710
1875,000000	60,541030
1874,000000	60,401834
1873,000000	60,115375
1872,000000	59,194701
1871,000000	57,417996
1870,000000	55,634391
1869,000000	55,099029
1868,000000	56,061891
1867,000000	57,624860
1866,000000	58,920521
1865,000000	59,771126
1864,000000	60,238385
1863,000000	60,304338
1862,000000	60,140191
1861,000000	60,084858
1860,000000	60,178479
1859,000000	60,185071
1858,000000	60,108011
1857,000000	60,186980
1856,000000	60,374303
1855,000000	60,374327
1854,000000	60,219164
1853,000000	60,222421
1852,000000	60,324766
1851,000000	60,132176
1850,000000	59,646676
1849,000000	59,235003
1848,000000	58,711001
1847,000000	57,286272
1846,000000	54,916026
1845,000000	53,018400
1844,000000	53,166923
1843,000000	55,334665
1842,000000	57,945498
1841,000000	59,518530
1840,000000	59,824113
1839,000000	59,560526
1838,000000	59,370902
1837,000000	59,387660
1836,000000	59,494096
1835,000000	59,615244
1834,000000	59,549832
1833,000000	58,786956
1832,000000	57,062406
1831,000000	55,172481
1830,000000	54,538393
1829,000000	55,528615
1828,000000	56,781096
1827,000000	56,885174
1826,000000	56,193993
1825,000000	56,179606
1824,000000	57,322619
1823,000000	58,659671
1822,000000	59,330655
1821,000000	59,482509
1820,000000	59,511038
1819,000000	59,384415
1818,000000	59,112262
1817,000000	59,059615
1816,000000	59,338821
1815,000000	59,466580
1814,000000	59,032278
1813,000000	58,263034
1812,000000	57,629738
1811,000000	57,349839
1810,000000	57,474806
1809,000000	57,994472
1808,000000	58,626046
1807,000000	58,939859
1806,000000	58,842107
1805,000000	58,522151
1804,000000	57,914579
1803,000000	56,829534
1802,000000	55,646464
1801,000000	55,167397
1800,000000	55,606643
1799,000000	56,379344
1798,000000	56,996488
1797,000000	57,345256
1796,000000	57,005975
1795,000000	55,325291
1794,000000	52,701120
1793,000000	50,853992
1792,000000	51,182129
1791,000000	53,335072
1790,000000	55,858904
1789,000000	57,608098
1788,000000	58,127175
1787,000000	57,507642
1786,000000	56,507380
1785,000000	56,143225
1784,000000	56,545017
1783,000000	56,793139
1782,000000	56,350303
1781,000000	55,919480
1780,000000	56,254063
1779,000000	56,956642
1778,000000	57,193031
1777,000000	56,772194
1776,000000	55,664087
1775,000000	53,387298
1774,000000	50,123648
1773,000000	47,686252
1772,000000	47,879077
1771,000000	50,109541
1770,000000	52,097678
1769,000000	52,842523
1768,000000	53,496702
1767,000000	55,085149
1766,000000	56,731513
1765,000000	56,851938
1764,000000	55,228331
1763,000000	53,261395
1762,000000	52,527087
1761,000000	53,388157
1760,000000	54,755102
1759,000000	55,145618
1758,000000	54,338869
1757,000000	53,743621
1756,000000	54,493544
1755,000000	55,598765
1754,000000	54,982443
1753,000000	52,293243
1752,000000	49,501642
1751,000000	48,448180
1750,000000	49,025415
1749,000000	50,161176
1748,000000	51,403669
1747,000000	52,692188
1746,000000	53,555631
1745,000000	53,613593
1744,000000	53,250775
1743,000000	52,865999
1742,000000	52,073657
1741,000000	50,730866
1740,000000	50,049494
1739,000000	51,140496
1738,000000	52,559149
1737,000000	51,253357
1736,000000	46,571032
1735,000000	41,913134
1734,000000	41,217550
1733,000000	44,637642
1732,000000	48,976747
1731,000000	51,675264
1730,000000	52,929138
1729,000000	54,013210
1728,000000	55,142439
1727,000000	55,702799
1726,000000	55,541338
1725,000000	55,143949
1724,000000	54,952728
1723,000000	54,939965
1722,000000	54,533391
1721,000000	52,693176
1720,000000	48,858765
1719,000000	44,270204
1718,000000	41,520725
1717,000000	42,061829
1716,000000	44,780247
1715,000000	47,681637
1714,000000	50,136935
1713,000000	52,442567
1712,000000	54,180218
1711,000000	54,566462
1710,000000	53,925818
1709,000000	53,150220
1708,000000	52,070237
1707,000000	50,172039
1706,000000	48,568307
1705,000000	48,825447
1704,000000	49,634977
1703,000000	47,501265
1702,000000	41,928948
1701,000000	37,358806
1700,000000	37,732678
1699,000000	41,216433
1698,000000	43,009563
1697,000000	42,013646
1696,000000	41,754648
1695,000000	44,889309
1694,000000	49,778041
1693,000000	53,124644
1692,000000	53,777549
1691,000000	53,001673
1690,000000	52,303043
1689,000000	51,970678
1688,000000	50,876484
1687,000000	47,505658
1686,000000	42,157395
1685,000000	37,973141
1684,000000	38,287374
1683,000000	42,807176
1682,000000	47,858689
1681,000000	50,748332
1680,000000	51,934062
1679,000000	52,451130
1678,000000	51,585937
1677,000000	48,763663
1676,000000	45,971622
1675,000000	45,849525
1674,000000	48,052590
1673,000000	49,518082
1672,000000	48,397349
1671,000000	46,041854
1670,000000	44,950520
1669,000000	46,172118
1668,000000	48,968692
1667,000000	51,770946
1666,000000	52,979720
1665,000000	51,898481
1664,000000	49,654882
1663,000000	48,502034
1662,000000	49,545959
1661,000000	51,680838
1660,000000	53,169578
1659,000000	53,532378
1658,000000	53,044365
1657,000000	50,940310
1656,000000	45,801312
1655,000000	38,256154
1654,000000	32,202677
1653,000000	31,846341
1652,000000	37,340866
1651,000000	44,235634
1650,000000	47,548454
1649,000000	46,139992
1648,000000	42,875081
1647,000000	41,305107
1646,000000	42,808078
1645,000000	46,375658
1644,000000	49,995861
1643,000000	52,152354
1642,000000	52,624014
1641,000000	52,220458
1640,000000	51,435228
1639,000000	49,564403
1638,000000	45,891093
1637,000000	41,622393
1636,000000	39,580315
1635,000000	41,433503
1634,000000	45,865046
1633,000000	50,004589
1632,000000	52,034916
1631,000000	52,011707
1630,000000	50,909076
1629,000000	49,739367
1628,000000	49,186396
1627,000000	49,169491
1626,000000	48,802121
1625,000000	47,512472
1624,000000	46,155849
1623,000000	46,290546
1622,000000	48,190105
1621,000000	50,091581
1620,000000	49,796073
1619,000000	46,881319
1618,000000	43,226323
1617,000000	41,501446
1616,000000	42,947307
1615,000000	46,384774
1614,000000	49,386478
1613,000000	50,484122
1612,000000	50,117613
1611,000000	49,522736
1610,000000	49,232547
1609,000000	49,069758
1608,000000	48,999898
1607,000000	49,229482
1606,000000	49,618534
1605,000000	49,735660
1604,000000	49,542634
1603,000000	49,462663
1602,000000	49,694553
1601,000000	49,964990
1600,000000	50,059519
1599,000000	50,095328
1598,000000	50,135456
1597,000000	50,007786
1596,000000	49,710016
1595,000000	49,569366
1594,000000	49,762176
1593,000000	50,023850
1592,000000	50,076822
1591,000000	50,034831
1590,000000	50,124129
1589,000000	50,283096
1588,000000	50,321318
1587,000000	50,271752
1586,000000	50,290170
1585,000000	50,339649
1584,000000	50,263210
1583,000000	50,112456
1582,000000	50,118731
1581,000000	50,172293
1580,000000	49,510327
1579,000000	47,244777
1578,000000	43,582397
1577,000000	40,414022
1576,000000	40,089217
1575,000000	43,063992
1574,000000	46,965196
1573,000000	48,608486
1572,000000	47,047023
1571,000000	44,267589
1570,000000	42,916233
1569,000000	43,827718
1568,000000	45,789716
1567,000000	47,192464
1566,000000	47,501635
1565,000000	47,306935
1564,000000	47,049932
1563,000000	45,773606
1562,000000	41,752410
1561,000000	35,047031
1560,000000	28,957632
1559,000000	27,522962
1558,000000	31,255585
1557,000000	36,580510
1556,000000	39,994527
1555,000000	41,492052
1554,000000	43,012768
1553,000000	44,974727
1552,000000	46,112674
1551,000000	46,100746
1550,000000	46,173895
1549,000000	46,965591
1548,000000	47,368785
1547,000000	46,245381
1546,000000	44,019189
1545,000000	41,789838
1544,000000	39,723690
1543,000000	37,180693
1542,000000	34,082153
1541,000000	31,585568
1540,000000	31,481848
1539,000000	34,788787
1538,000000	40,348596
1537,000000	44,949517
1536,000000	45,896487
1535,000000	43,829679
1534,000000	42,069081
1533,000000	42,897448
1532,000000	45,376996
1531,000000	47,206108
1530,000000	47,395096
1529,000000	46,409684
1528,000000	44,876372
1527,000000	43,376542
1526,000000	42,578455
1525,000000	42,285244
1524,000000	41,111936
1523,000000	38,459235
1522,000000	36,170297
1521,000000	36,546795
1520,000000	39,118356
1519,000000	41,143627
1518,000000	41,367852
1517,000000	41,375618
1516,000000	42,745608
1515,000000	44,683479
1514,000000	45,504337
1513,000000	45,125063
1512,000000	44,583695
1511,000000	43,862173
1510,000000	41,669423
1509,000000	37,514180
1508,000000	33,065396
1507,000000	31,076954
1506,000000	33,119222
1505,000000	38,234281
1504,000000	43,586220
1503,000000	46,607297
1502,000000	46,765080
1501,000000	45,252813
1500,000000	43,248938
1499,000000	41,058497
1498,000000	38,968248
1497,000000	37,949512
1496,000000	38,829420
1495,000000	41,040927
1494,000000	42,856592
1493,000000	42,911746
1492,000000	41,350437
1491,000000	39,562395
1490,000000	38,951022
1489,000000	39,848447
1488,000000	41,560055
1487,000000	43,348001
1486,000000	45,059431
1485,000000	46,612483
1484,000000	47,480008
1483,000000	47,359634
1482,000000	46,935340
1481,000000	47,078168
1480,000000	47,464077
1479,000000	47,001317
1478,000000	45,524198
1477,000000	43,926106
1476,000000	42,541526
1475,000000	40,729429
1474,000000	38,566602
1473,000000	37,614612
1472,000000	39,150980
1471,000000	42,427046
1470,000000	45,496462
1469,000000	47,041209
1468,000000	46,797471
1467,000000	45,134215
1466,000000	43,127997
1465,000000	42,346730
1464,000000	43,450737
1463,000000	45,312033
1462,000000	46,095949
1461,000000	44,852636
1460,000000	41,652269
1459,000000	37,256232
1458,000000	33,430264
1457,000000	32,535687
1456,000000	35,344001
1455,000000	39,780578
1454,000000	42,971176
1453,000000	44,128848
1452,000000	44,379465
1451,000000	44,402600
1450,000000	43,886480
1449,000000	43,011299
1448,000000	42,831351
1447,000000	43,797787
1446,000000	45,114285
1445,000000	45,911902
1444,000000	46,179616
1443,000000	46,299771
1442,000000	46,388393
1441,000000	46,236580
1440,000000	45,313673
1439,000000	43,069628
1438,000000	40,036072
1437,000000	38,242522
1436,000000	39,330838
1435,000000	42,398248
1434,000000	44,822481
1433,000000	45,260724
1432,000000	44,604006
1431,000000	44,108150
1430,000000	44,042437
1429,000000	44,335195
1428,000000	45,041783
1427,000000	45,662393
1426,000000	45,367148
1425,000000	44,405070
1424,000000	44,001047
1423,000000	44,218859
1422,000000	43,439611
1421,000000	40,869410
1420,000000	38,266179
1419,000000	37,937581
1418,000000	39,912048
1417,000000	42,378559
1416,000000	44,066206
1415,000000	44,995104
1414,000000	45,393944
1413,000000	45,271704
1412,000000	44,932655
1411,000000	44,847412
1410,000000	44,969578
1409,000000	44,848215
1408,000000	44,323174
1407,000000	43,576937
1406,000000	42,811404
1405,000000	42,348123
1404,000000	42,599232
1403,000000	43,323632
1402,000000	43,457265
1401,000000	42,421599
1400,000000	41,130042
1399,000000	40,780423
1398,000000	41,148874
1397,000000	41,085563
1396,000000	40,410928
1395,000000	40,205183
1394,000000	41,174492
1393,000000	42,768757
1392,000000	43,998274
1391,000000	44,331345
1390,000000	43,685399
1389,000000	42,374492
1388,000000	41,278477
1387,000000	41,305305
1386,000000	42,372087
1385,000000	43,479792
1384,000000	43,955425
1383,000000	44,029386
1382,000000	44,099410
1381,000000	44,104703
1380,000000	43,930430
1379,000000	43,767740
1378,000000	43,677739
1377,000000	43,302548
1376,000000	42,466939
1375,000000	41,693023
1374,000000	41,662545
1373,000000	42,381860
1372,000000	43,210284
1371,000000	43,604419
1370,000000	43,556788
1369,000000	43,416365
1368,000000	43,471982
1367,000000	43,636558
1366,000000	43,482172
1365,000000	42,716517
1364,000000	41,653499
1363,000000	41,025099
1362,000000	41,237688
1361,000000	42,014558
1360,000000	42,810572
1359,000000	43,326232
1358,000000	43,544864
1357,000000	43,531570
1356,000000	43,401068
1355,000000	43,322386
1354,000000	43,372845
1353,000000	43,452384
1352,000000	43,440986
1351,000000	43,354292
1350,000000	43,280233
1349,000000	43,252967
1348,000000	43,253274
1347,000000	43,262767
1346,000000	43,266036
1345,000000	43,237886
1344,000000	43,126723
1343,000000	42,825677
1342,000000	42,246888
1341,000000	41,517050
1340,000000	41,007146
1339,000000	41,011827
1338,000000	41,438142
1337,000000	41,955143
1336,000000	42,364380
1335,000000	42,669323
1334,000000	42,867968
1333,000000	42,907553
1332,000000	42,835073
1331,000000	42,781919
1330,000000	42,779893
1329,000000	42,750352
1328,000000	42,680163
1327,000000	42,638970
1326,000000	42,628527
1325,000000	42,575262
1324,000000	42,473449
1323,000000	42,374719
1322,000000	42,245651
1321,000000	42,005924
1320,000000	41,716889
1319,000000	41,559169
1318,000000	41,590599
1317,000000	41,677212
1316,000000	41,686536
1315,000000	41,624528
1314,000000	41,556293
1313,000000	41,519928
1312,000000	41,538305
1311,000000	41,603981
1310,000000	41,640613
1309,000000	41,581400
1308,000000	41,476425
1307,000000	41,423406
1306,000000	41,414847
1305,000000	41,368732
1304,000000	41,282778
1303,000000	41,225704
1302,000000	41,199486
1301,000000	41,139141
1300,000000	41,041657
1299,000000	40,964637
1298,000000	40,910554
1297,000000	40,832636
1296,000000	40,744218
1295,000000	40,698970
1294,000000	40,676170
1293,000000	40,605208
1292,000000	40,489006
1291,000000	40,387887
1290,000000	40,300482
1289,000000	40,184788
1288,000000	40,071705
1287,000000	40,031284
1286,000000	40,038608
1285,000000	40,002462
1284,000000	39,911140
1283,000000	39,829734
1282,000000	39,767364
1281,000000	39,673655
1280,000000	39,555666
1279,000000	39,471142
1278,000000	39,413253
1277,000000	39,318794
1276,000000	39,183889
1275,000000	39,054453
1274,000000	38,919227
1273,000000	38,729316
1272,000000	38,514072
1271,000000	38,353076
1270,000000	38,241468
1269,000000	38,099377
1268,000000	37,907779
1267,000000	37,721348
1266,000000	37,552159
1265,000000	37,358440
1264,000000	37,143663
1263,000000	36,960757
1262,000000	36,820702
1261,000000	36,702047
1260,000000	36,635355
1259,000000	36,668167
1258,000000	36,757944
1257,000000	36,810197
1256,000000	36,811515
1255,000000	36,819166
1254,000000	36,835024
1253,000000	36,804154
1252,000000	36,729012
1251,000000	36,667321
1250,000000	36,622004
1249,000000	36,541972
1248,000000	36,428719
1247,000000	36,333673
1246,000000	36,256724
1245,000000	36,152230
1244,000000	36,030692
1243,000000	35,946771
1242,000000	35,891834
1241,000000	35,804725
1240,000000	35,683960
1239,000000	35,585706
1238,000000	35,513299
1237,000000	35,415638
1236,000000	35,290942
1235,000000	35,189206
1234,000000	35,110951
1233,000000	35,006527
1232,000000	34,875600
1231,000000	34,768256
1230,000000	34,685990
1229,000000	34,578898
1228,000000	34,442460
1227,000000	34,322210
1226,000000	34,223383
1225,000000	34,107276
1224,000000	33,976243
1223,000000	33,869454
1222,000000	33,777588
1221,000000	33,652505
1220,000000	33,499384
1219,000000	33,368754
1218,000000	33,261970
1217,000000	33,133575
1216,000000	32,981991
1215,000000	32,848300
1214,000000	32,731169
1213,000000	32,594003
1212,000000	32,449544
1211,000000	32,346033
1210,000000	32,274509
1209,000000	32,181099
1208,000000	32,064789
1207,000000	31,973008
1206,000000	31,905110
1205,000000	31,813855
1204,000000	31,698804
1203,000000	31,605891
1202,000000	31,535872
1201,000000	31,443557
1200,000000	31,327963
1199,000000	31,233735
1198,000000	31,163048
1197,000000	31,072711
1196,000000	30,959612
1195,000000	30,863160
1194,000000	30,783213
1193,000000	30,680253
1192,000000	30,556288
1191,000000	30,451807
1190,000000	30,363346
1189,000000	30,248044
1188,000000	30,109311
1187,000000	29,993693
1186,000000	29,901921
1185,000000	29,785248
1184,000000	29,631183
1183,000000	29,474555
1182,000000	29,325553
1181,000000	29,167232
1180,000000	29,021029
1179,000000	28,930929
1178,000000	28,880836
1177,000000	28,808634
1176,000000	28,703044
1175,000000	28,608103
1174,000000	28,533651
1173,000000	28,442462
1172,000000	28,328202
1171,000000	28,225303
1170,000000	28,136609
1169,000000	28,028126
1168,000000	27,900136
1167,000000	27,789348
1166,000000	27,697318
1165,000000	27,589253
1164,000000	27,465030
1163,000000	27,359220
1162,000000	27,270591
1161,000000	27,163862
1160,000000	27,041525
1159,000000	26,941475
1158,000000	26,863791
1157,000000	26,771364
1156,000000	26,662999
1155,000000	26,573381
1154,000000	26,501615
1153,000000	26,411735
1152,000000	26,304285
1151,000000	26,215746
1150,000000	26,146185
1149,000000	26,059046
1148,000000	25,952963
1147,000000	25,863832
1146,000000	25,794084
1145,000000	25,710280
1144,000000	25,611649
1143,000000	25,532429
1142,000000	25,473970
1141,000000	25,402546
1140,000000	25,315265
1139,000000	25,241670
1138,000000	25,179739
1137,000000	25,096733
1136,000000	24,994289
1135,000000	24,906182
1134,000000	24,832240
1133,000000	24,739309
1132,000000	24,628030
1131,000000	24,531891
1130,000000	24,451362
1129,000000	24,353917
1128,000000	24,239650
1127,000000	24,141263
1126,000000	24,058966
1125,000000	23,960392
1124,000000	23,844689
1123,000000	23,742997
1122,000000	23,654922
1121,000000	23,549367
1120,000000	23,427381
1119,000000	23,321473
1118,000000	23,231617
1117,000000	23,126210
1116,000000	23,005564
1115,000000	22,901928
1114,000000	22,816025
1113,000000	22,716437
1112,000000	22,602340
1111,000000	22,504277
1110,000000	22,422916
1109,000000	22,328132
1108,000000	22,220721
1107,000000	22,132395
1106,000000	22,065010
1105,000000	21,988684
1104,000000	21,901368
1103,000000	21,829669
1102,000000	21,771179
1101,000000	21,695892
1100,000000	21,605128
1099,000000	21,529769
1098,000000	21,469647
1097,000000	21,394550
1096,000000	21,304155
1095,000000	21,228751
1094,000000	21,169262
1093,000000	21,096976
1092,000000	21,011769
1091,000000	20,942903
1090,000000	20,890522
1089,000000	20,825167
1088,000000	20,745919
1087,000000	20,681239
1086,000000	20,631580
1085,000000	20,567862
1084,000000	20,488672
1083,000000	20,421890
1082,000000	20,370166
1081,000000	20,309330
1080,000000	20,242297
1079,000000	20,196865
1078,000000	20,171252
1077,000000	20,136338
1076,000000	20,092644
1075,000000	20,069344
1074,000000	20,066150
1073,000000	20,052796
1072,000000	20,025984
1071,000000	20,012495
1070,000000	20,013985
1069,000000	20,004641
1068,000000	19,983953
1067,000000	19,978805
1066,000000	19,990029
1065,000000	19,991288
1064,000000	19,981076
1063,000000	19,984333
1062,000000	20,000922
1061,000000	20,004622
1060,000000	19,993851
1059,000000	19,990867
1058,000000	19,990029
1057,000000	19,956454
1056,000000	19,879832
1055,000000	19,779231
1054,000000	19,660903
1053,000000	19,521961
1052,000000	19,396518
1051,000000	19,341584
1050,000000	19,375684
1049,000000	19,474054
1048,000000	19,619590
1047,000000	19,808126
1046,000000	20,006051
1045,000000	20,163929
1044,000000	20,274169
1043,000000	20,368159
1042,000000	20,455220
1041,000000	20,516814
1040,000000	20,556783
1039,000000	20,604111
1038,000000	20,662297
1037,000000	20,707122
1036,000000	20,737591
1035,000000	20,778128
1034,000000	20,829597
1033,000000	20,867567
1032,000000	20,892056
1031,000000	20,928267
1030,000000	20,977417
1029,000000	21,014423
1028,000000	21,037889
1027,000000	21,072114
1026,000000	21,118937
1025,000000	21,154886
1024,000000	21,179089
1023,000000	21,215662
1022,000000	21,266569
1021,000000	21,309668
1020,000000	21,344714
1019,000000	21,395102
1018,000000	21,460575
1017,000000	21,517189
1016,000000	21,564307
1015,000000	21,626420
1014,000000	21,704721
1013,000000	21,774648
1012,000000	21,833095
1011,000000	21,902203
1010,000000	21,983334
1009,000000	22,053140
1008,000000	22,108744
1007,000000	22,170832
1006,000000	22,240071
1005,000000	22,294025
1004,000000	22,331317
1003,000000	22,373572
1002,000000	22,422011
1001,000000	22,454689
1000,000000	22,470545
999,000000	22,491167
998,000000	22,517809
997,000000	22,529248
996,000000	22,524679
995,000000	22,526162
994,000000	22,534903
993,000000	22,529644
992,000000	22,509027
991,000000	22,494451
990,000000	22,487366
989,000000	22,467284
988,000000	22,433344
987,000000	22,406621
986,000000	22,388003
985,000000	22,356694
984,000000	22,312164
983,000000	22,275984
982,000000	22,249998
981,000000	22,213455
980,000000	22,165069
979,000000	22,124786
978,000000	22,093113
977,000000	22,048663
976,000000	21,990248
975,000000	21,939198
974,000000	21,898159
973,000000	21,847419
972,000000	21,785386
971,000000	21,731790
970,000000	21,687754
969,000000	21,633132
968,000000	21,565911
967,000000	21,505771
966,000000	21,454449
965,000000	21,393494
964,000000	21,322377
963,000000	21,260814
962,000000	21,209270
961,000000	21,147441
960,000000	21,073886
959,000000	21,008679
958,000000	20,953843
957,000000	20,890084
956,000000	20,816098
955,000000	20,751372
954,000000	20,697784
953,000000	20,635911
952,000000	20,564127
951,000000	20,501664
950,000000	20,450698
949,000000	20,392176
948,000000	20,323954
947,000000	20,264649
946,000000	20,216448
945,000000	20,161012
944,000000	20,095858
943,000000	20,038458
942,000000	19,989936
941,000000	19,932198
940,000000	19,863573
939,000000	19,802437
938,000000	19,750740
937,000000	19,691006
936,000000	19,621738
935,000000	19,560975
934,000000	19,510556
933,000000	19,452630
932,000000	19,384985
931,000000	19,324711
930,000000	19,273958
929,000000	19,215958
928,000000	19,149102
927,000000	19,089615
926,000000	19,038543
925,000000	18,979087
924,000000	18,910622
923,000000	18,850340
922,000000	18,799189
921,000000	18,739277
920,000000	18,668146
919,000000	18,602076
918,000000	18,542508
917,000000	18,473241
916,000000	18,392869
915,000000	18,317564
914,000000	18,248321
913,000000	18,169360
912,000000	18,080755
911,000000	18,000820
910,000000	17,932667
909,000000	17,861379
908,000000	17,785932
907,000000	17,721578
906,000000	17,668187
905,000000	17,608670
904,000000	17,541451
903,000000	17,482187
902,000000	17,431755
901,000000	17,373734
900,000000	17,307101
899,000000	17,248467
898,000000	17,200340
897,000000	17,147548
896,000000	17,088117
895,000000	17,035907
894,000000	16,990500
893,000000	16,935599
892,000000	16,869679
891,000000	16,808093
890,000000	16,751716
889,000000	16,684843
888,000000	16,605443
887,000000	16,527994
886,000000	16,453413
885,000000	16,366905
884,000000	16,267823
883,000000	16,172290
882,000000	16,083694
881,000000	15,990417
880,000000	15,895134
879,000000	15,816462
878,000000	15,758994
877,000000	15,710163
876,000000	15,668868
875,000000	15,648256
874,000000	15,647610
873,000000	15,649877
872,000000	15,651087
871,000000	15,662885
870,000000	15,684468
869,000000	15,699172
868,000000	15,702297
867,000000	15,705173
866,000000	15,708897
865,000000	15,701312
864,000000	15,682228
863,000000	15,665628
862,000000	15,653209
861,000000	15,632415
860,000000	15,601967
859,000000	15,574375
858,000000	15,550695
857,000000	15,518572
856,000000	15,477309
855,000000	15,439719
854,000000	15,407568
853,000000	15,370057
852,000000	15,328338
851,000000	15,296139
850,000000	15,274566
849,000000	15,250376
848,000000	15,221241
847,000000	15,197941
846,000000	15,180452
845,000000	15,156041
844,000000	15,123175
843,000000	15,093344
842,000000	15,067632
841,000000	15,034907
840,000000	14,994427
839,000000	14,956784
838,000000	14,920950
837,000000	14,873353
836,000000	14,811071
835,000000	14,743663
834,000000	14,670002
833,000000	14,577146
832,000000	14,463203
831,000000	14,340229
830,000000	14,212739
829,000000	14,075416
828,000000	13,934494
827,000000	13,810127
826,000000	13,715799
825,000000	13,653609
824,000000	13,630758
823,000000	13,656982
822,000000	13,724250
821,000000	13,807787
820,000000	13,889725
819,000000	13,965380
818,000000	14,027225
817,000000	14,064573
816,000000	14,079908
815,000000	14,086626
814,000000	14,088476
813,000000	14,078757
812,000000	14,058650
811,000000	14,037837
810,000000	14,017191
809,000000	13,988807
808,000000	13,953726
807,000000	13,921721
806,000000	13,893564
805,000000	13,861222
804,000000	13,825382
803,000000	13,795555
802,000000	13,772749
801,000000	13,749205
800,000000	13,725328
799,000000	13,710265
798,000000	13,705271
797,000000	13,702480
796,000000	13,700749
795,000000	13,706966
794,000000	13,721582
793,000000	13,737504
792,000000	13,753652
791,000000	13,775470
790,000000	13,801633
789,000000	13,824009
788,000000	13,840877
787,000000	13,857631
786,000000	13,874704
785,000000	13,887013
784,000000	13,894716
783,000000	13,902767
782,000000	13,910604
781,000000	13,913099
780,000000	13,910827
779,000000	13,909060
778,000000	13,908068
777,000000	13,904043
776,000000	13,897533
775,000000	13,891841
774,000000	13,885301
773,000000	13,874028
772,000000	13,859841
771,000000	13,847221
770,000000	13,835204
769,000000	13,819941
768,000000	13,802135
767,000000	13,784886
766,000000	13,767298
765,000000	13,746944
764,000000	13,725261
763,000000	13,704795
762,000000	13,684639
761,000000	13,663387
760,000000	13,642518
759,000000	13,622716
758,000000	13,601348
757,000000	13,577119
756,000000	13,552543
755,000000	13,529140
754,000000	13,505186
753,000000	13,479880
752,000000	13,454501
751,000000	13,428667
750,000000	13,401033
749,000000	13,373126
748,000000	13,346621
747,000000	13,318705
746,000000	13,286609
745,000000	13,253216
744,000000	13,221202
743,000000	13,187099
742,000000	13,149633
741,000000	13,116686
740,000000	13,093475
739,000000	13,071870
738,000000	13,042895
737,000000	13,010991
736,000000	12,983017
735,000000	12,954077
734,000000	12,918385
733,000000	12,882672
732,000000	12,852954
731,000000	12,821321
730,000000	12,782252
729,000000	12,746506
728,000000	12,720987
727,000000	12,693739
726,000000	12,658619
725,000000	12,627844
724,000000	12,593508
723,000000	12,509202
722,000000	12,357166
721,000000	12,208510
720,000000	12,161575
719,000000	12,225274
718,000000	12,313364
717,000000	12,351393
716,000000	12,338719
715,000000	12,306959
714,000000	12,269818
713,000000	12,229938
712,000000	12,192880
711,000000	12,156322
710,000000	12,110546
709,000000	12,057618
708,000000	12,007410
707,000000	11,956777
706,000000	11,897048
705,000000	11,835751
704,000000	11,783965
703,000000	11,731758
702,000000	11,664255
701,000000	11,588497
700,000000	11,515998
699,000000	11,436158
698,000000	11,339048
697,000000	11,241466
696,000000	11,156949
695,000000	11,065476
694,000000	10,949896
693,000000	10,828863
692,000000	10,714822
691,000000	10,579706
690,000000	10,411993
689,000000	10,262689
688,000000	10,176868
687,000000	10,126397
686,000000	10,069993
685,000000	10,026992
684,000000	10,018973
683,000000	10,002536
682,000000	9,941814
681,000000	9,886447
680,000000	9,883039
679,000000	9,883433
678,000000	9,841610
677,000000	9,816293
676,000000	9,858109
675,000000	9,899714
674,000000	9,892257
673,000000	9,884332
672,000000	9,751092
671,000000	9,054679
670,000000	7,613524
669,000000	6,139160
668,000000	5,800669
667,000000	6,946622
666,000000	8,640360
665,000000	9,714212
664,000000	9,913089
663,000000	9,766366
662,000000	9,675291
661,000000	9,594897
660,000000	9,446906
659,000000	9,335206
658,000000	9,312869
657,000000	9,274232
656,000000	9,173228
655,000000	9,103948
654,000000	9,107852
653,000000	9,095579
652,000000	9,019909
651,000000	8,949968
650,000000	8,928793
649,000000	8,912263
648,000000	8,888841
647,000000	8,913514
646,000000	8,982536
645,000000	9,013366
644,000000	8,983213
643,000000	8,964178
642,000000	8,984832
641,000000	8,986521
640,000000	8,945122
639,000000	8,916412
638,000000	8,920974
637,000000	8,903336
636,000000	8,844514
635,000000	8,804014
634,000000	8,808921
633,000000	8,804002
632,000000	8,757615
631,000000	8,714336
630,000000	8,701587
629,000000	8,675102
628,000000	8,607246
627,000000	8,540081
626,000000	8,506002
625,000000	8,473969
624,000000	8,420176
623,000000	8,374824
622,000000	8,350907
621,000000	8,299063
620,000000	8,182827
619,000000	8,044357
618,000000	7,947978
617,000000	7,908513
616,000000	7,905036
615,000000	7,917311
614,000000	7,918665
613,000000	7,880551
612,000000	7,810712
611,000000	7,747069
610,000000	7,697807
609,000000	7,633452
608,000000	7,547915
607,000000	7,474197
606,000000	7,428556
605,000000	7,389677
604,000000	7,345979
603,000000	7,309843
602,000000	7,277531
601,000000	7,227118
600,000000	7,166360
599,000000	7,127286
598,000000	7,107827
597,000000	7,071665
596,000000	7,011567
595,000000	6,955379
594,000000	6,905828
593,000000	6,837813
592,000000	6,760186
591,000000	6,715949
590,000000	6,707023
589,000000	6,684684
588,000000	6,626220
587,000000	6,562838
586,000000	6,515496
585,000000	6,464279
584,000000	6,397540
583,000000	6,334357
582,000000	6,282133
581,000000	6,223627
580,000000	6,158608
579,000000	6,105673
578,000000	6,057268
577,000000	5,987451
576,000000	5,910464
575,000000	5,868778
574,000000	5,858475
573,000000	5,827633
572,000000	5,759813
571,000000	5,692920
570,000000	5,645257
569,000000	5,591239
568,000000	5,524435
567,000000	5,477595
566,000000	5,457402
565,000000	5,426183
564,000000	5,368682
563,000000	5,317612
562,000000	5,288328
561,000000	5,251460
560,000000	5,192615
559,000000	5,140017
558,000000	5,107130
557,000000	5,066180
556,000000	5,005343
555,000000	4,954269
554,000000	4,927175
553,000000	4,893980
552,000000	4,837565
551,000000	4,784247
550,000000	4,751729
549,000000	4,716960
548,000000	4,665445
547,000000	4,621439
546,000000	4,601044
545,000000	4,582194
544,000000	4,548274
543,000000	4,516632
542,000000	4,497292
541,000000	4,470046
540,000000	4,425839
539,000000	4,387666
538,000000	4,365291
537,000000	4,336044
536,000000	4,291201
535,000000	4,256049
534,000000	4,239695
533,000000	4,214008
532,000000	4,166123
531,000000	4,122574
530,000000	4,094812
529,000000	4,049040
528,000000	3,964727
527,000000	3,877163
526,000000	3,829424
525,000000	3,816360
524,000000	3,807728
523,000000	3,790383
522,000000	3,759844
521,000000	3,705502
520,000000	3,632885
519,000000	3,571817
518,000000	3,539649
517,000000	3,524041
516,000000	3,514719
515,000000	3,517912
514,000000	3,525492
513,000000	3,511737
512,000000	3,475715
511,000000	3,447034
510,000000	3,432232
509,000000	3,402737
508,000000	3,352196
507,000000	3,316623
506,000000	3,311123
505,000000	3,296634
504,000000	3,243216
503,000000	3,181629
502,000000	3,156946
501,000000	3,164489
500,000000	3,169804
499,000000	3,160061
498,000000	3,142010
497,000000	3,114662
496,000000	3,075423
495,000000	3,033811
494,000000	2,995387
493,000000	2,951865
492,000000	2,904064
491,000000	2,869663
490,000000	2,851833
489,000000	2,827473
488,000000	2,781739
487,000000	2,728249
486,000000	2,680030
485,000000	2,631482
484,000000	2,582771
483,000000	2,550473
482,000000	2,536128
481,000000	2,515049
480,000000	2,473470
479,000000	2,428311
478,000000	2,394778
477,000000	2,361752
476,000000	2,314901
475,000000	2,257042
474,000000	2,195413
473,000000	2,136195
472,000000	2,097978
471,000000	2,097073
470,000000	2,113114
469,000000	2,105134
468,000000	2,071054
467,000000	2,049123
466,000000	2,052176
465,000000	2,047081
464,000000	2,014749
463,000000	1,982764
462,000000	1,971168
461,000000	1,951702
460,000000	1,894309
459,000000	1,822355
458,000000	1,786029
457,000000	1,801710
456,000000	1,843837
455,000000	1,878331
454,000000	1,885967
453,000000	1,869593
452,000000	1,852248
451,000000	1,852795
450,000000	1,858500
449,000000	1,843037
448,000000	1,809853
447,000000	1,786251
446,000000	1,775735
445,000000	1,753555
444,000000	1,715420
443,000000	1,689265
442,000000	1,688690
441,000000	1,692518
440,000000	1,681510
439,000000	1,660308
438,000000	1,633285
437,000000	1,596281
436,000000	1,560679
435,000000	1,547621
434,000000	1,549077
433,000000	1,533729
432,000000	1,497997
431,000000	1,470867
430,000000	1,460383
429,000000	1,440787
428,000000	1,401520
427,000000	1,362407
426,000000	1,330466
425,000000	1,288928
424,000000	1,239484
423,000000	1,202702
422,000000	1,165485
421,000000	1,087160
420,000000	0,979428
419,000000	0,918246
418,000000	0,945322
417,000000	1,010339
416,000000	1,044116
415,000000	1,039705
414,000000	1,024714
413,000000	1,003005
412,000000	0,967638
411,000000	0,933421
410,000000	0,913702
409,000000	0,893253
408,000000	0,858188
407,000000	0,824010
406,000000	0,804739
405,000000	0,784907
404,000000	0,750108
403,000000	0,713384
402,000000	0,683273
401,000000	0,639808
400,000000	0,572386
399,000000	0,509732
398,000000	0,480970
397,000000	0,475599
396,000000	0,470331
395,000000	0,466189
394,000000	0,470646
393,000000	0,471388
392,000000	0,457368
391,000000	0,440660
390,000000	0,431776
389,000000	0,418302
388,000000	0,390459
387,000000	0,361509
386,000000	0,342379
385,000000	0,323598
384,000000	0,300970
383,000000	0,289338
382,000000	0,291631
381,000000	0,286138
380,000000	0,262987
379,000000	0,240262
378,000000	0,226411
377,000000	0,203716
376,000000	0,168514
375,000000	0,148953
374,000000	0,158310
373,000000	0,169389
372,000000	0,159255
371,000000	0,143520
370,000000	0,140116
369,000000	0,137163
368,000000	0,122702
367,000000	0,111485
366,000000	0,113339
365,000000	0,110496
364,000000	0,092440
363,000000	0,078543
362,000000	0,081259
361,000000	0,081379
360,000000	0,065113
359,000000	0,050998
358,000000	0,052546
357,000000	0,052724
356,000000	0,038817
355,000000	0,028646
354,000000	0,034154
353,000000	0,037557
352,000000	0,024971
351,000000	0,015725
350,000000	0,022729
349,000000	0,028657
348,000000	0,019971
347,000000	0,013505
346,000000	0,019646
345,000000	0,024242
344,000000	0,014351
343,000000	0,008376
342,000000	0,014870
341,000000	0,019743
340,000000	0,009847
339,000000	0,004949
338,000000	0,010479
337,000000	0,015329
336,000000	0,006334
335,000000	0,007793
334,000000	0,005629
333,000000	0,011993
332,000000	0,006351
331,000000	0,007735
330,000000	0,004282
329,000000	0,011139
328,000000	0,005524
327,000000	0,006896
326,000000	0,006005
325,000000	0,010920
324,000000	0,005270
323,000000	0,008031
322,000000	0,006752
321,000000	0,014397
320,000000	0,008167
319,000000	0,007774
318,000000	0,006032
317,000000	0,010768
316,000000	0,013112
315,000000	0,019914
314,000000	0,016569
313,000000	0,011154
312,000000	0,005559
311,000000	0,011521
310,000000	0,006436
309,000000	0,011491
308,000000	0,008552
307,000000	0,009362
306,000000	0,007656
305,000000	0,014909
304,000000	0,008574
303,000000	0,005967
302,000000	0,007529
301,000000	0,013815
300,000000	0,005691
