PE IR       SUBTECH     SPECTRUM    ASCII       PEDS        4.00        
   -1
NaCl blocking filter.ASC
25/06/17
10:00:01.00
25/06/17
10:00:01.00
Praktikum
res 4
300,000000
#HDR
-1
-1
#GR
cm-1
EGY
1.0
0.0
4000,000000
-1,000000
3701
8
52,222689
0,000698
#DATA
4000,000000	34,794360
3999,000000	34,799975
3998,000000	34,793132
3997,000000	34,780377
3996,000000	34,774290
3995,000000	34,781803
3994,000000	34,796910
3993,000000	34,809474
3992,000000	34,819994
3991,000000	34,840901
3990,000000	34,880942
3989,000000	34,932460
3988,000000	34,977374
3987,000000	35,003162
3986,000000	35,010156
3985,000000	35,006707
3984,000000	35,002873
3983,000000	35,007981
3982,000000	35,027276
3981,000000	35,055910
3980,000000	35,078582
3979,000000	35,079419
3978,000000	35,055384
3977,000000	35,020178
3976,000000	34,994766
3975,000000	34,993533
3974,000000	35,016242
3973,000000	35,051317
3972,000000	35,087020
3971,000000	35,120646
3970,000000	35,158530
3969,000000	35,207019
3968,000000	35,261041
3967,000000	35,300318
3966,000000	35,299962
3965,000000	35,251690
3964,000000	35,179371
3963,000000	35,128340
3962,000000	35,131108
3961,000000	35,181489
3960,000000	35,244768
3959,000000	35,292009
3958,000000	35,321059
3957,000000	35,344581
3956,000000	35,364683
3955,000000	35,363141
3954,000000	35,311692
3953,000000	35,191023
3952,000000	35,010218
3951,000000	34,819987
3950,000000	34,701203
3949,000000	34,715895
3948,000000	34,844119
3947,000000	34,971283
3946,000000	34,972847
3945,000000	34,835395
3944,000000	34,692408
3943,000000	34,712715
3942,000000	34,940222
3941,000000	35,260957
3940,000000	35,525597
3939,000000	35,670791
3938,000000	35,706031
3937,000000	35,622305
3936,000000	35,377902
3935,000000	34,989305
3934,000000	34,590212
3933,000000	34,365850
3932,000000	34,420871
3931,000000	34,708860
3930,000000	35,061918
3929,000000	35,282575
3928,000000	35,262248
3927,000000	35,060093
3926,000000	34,859981
3925,000000	34,817344
3924,000000	34,920967
3923,000000	35,014232
3922,000000	34,944699
3921,000000	34,685885
3920,000000	34,345788
3919,000000	34,099408
3918,000000	34,110814
3917,000000	34,445858
3916,000000	35,012424
3915,000000	35,599964
3914,000000	36,017306
3913,000000	36,218036
3912,000000	36,281542
3911,000000	36,278326
3910,000000	36,162928
3909,000000	35,790195
3908,000000	35,035163
3907,000000	33,931423
3906,000000	32,721031
3905,000000	31,743155
3904,000000	31,216293
3903,000000	31,120388
3902,000000	31,309880
3901,000000	31,723123
3900,000000	32,429202
3899,000000	33,443230
3898,000000	34,561754
3897,000000	35,420159
3896,000000	35,703995
3895,000000	35,324036
3894,000000	34,492452
3893,000000	33,690078
3892,000000	33,424162
3891,000000	33,809609
3890,000000	34,358605
3889,000000	34,385156
3888,000000	33,701801
3887,000000	32,865545
3886,000000	32,597620
3885,000000	33,022729
3884,000000	33,593692
3883,000000	33,752850
3882,000000	33,545003
3881,000000	33,510829
3880,000000	34,028523
3879,000000	34,866487
3878,000000	35,409061
3877,000000	35,287531
3876,000000	34,709102
3875,000000	34,105319
3874,000000	33,581761
3873,000000	32,893940
3872,000000	31,994483
3871,000000	31,351552
3870,000000	31,486370
3869,000000	32,290281
3868,000000	33,060602
3867,000000	33,247877
3866,000000	32,990353
3865,000000	32,842943
3864,000000	33,148141
3863,000000	33,823105
3862,000000	34,601204
3861,000000	35,266807
3860,000000	35,606192
3859,000000	35,283012
3858,000000	33,926921
3857,000000	31,466436
3856,000000	28,471220
3855,000000	26,104621
3854,000000	25,500124
3853,000000	26,970478
3852,000000	29,782955
3851,000000	32,730134
3850,000000	34,943102
3849,000000	36,185936
3848,000000	36,598403
3847,000000	36,385753
3846,000000	35,779728
3845,000000	35,058242
3844,000000	34,420231
3843,000000	33,836210
3842,000000	33,107316
3841,000000	32,122989
3840,000000	31,079756
3839,000000	30,420599
3838,000000	30,517852
3837,000000	31,346251
3836,000000	32,471518
3835,000000	33,397462
3834,000000	33,947578
3833,000000	34,316033
3832,000000	34,764434
3831,000000	35,319026
3830,000000	35,765041
3829,000000	35,925358
3828,000000	35,876738
3827,000000	35,811577
3826,000000	35,673392
3825,000000	35,071762
3824,000000	33,762886
3823,000000	32,195123
3822,000000	31,300514
3821,000000	31,564544
3820,000000	32,421184
3819,000000	32,854952
3818,000000	32,546741
3817,000000	32,215745
3816,000000	32,755826
3815,000000	34,254022
3814,000000	36,001248
3813,000000	37,229650
3812,000000	37,613995
3811,000000	37,156934
3810,000000	36,016369
3809,000000	34,620112
3808,000000	33,669412
3807,000000	33,621506
3806,000000	34,108229
3805,000000	34,174963
3804,000000	33,298809
3803,000000	32,064709
3802,000000	31,602659
3801,000000	32,386279
3800,000000	33,803514
3799,000000	34,912922
3798,000000	35,417276
3797,000000	35,722802
3796,000000	36,268025
3795,000000	37,040053
3794,000000	37,732815
3793,000000	38,139202
3792,000000	38,285020
3791,000000	38,299060
3790,000000	38,262029
3789,000000	38,166115
3788,000000	37,974191
3787,000000	37,723444
3786,000000	37,544885
3785,000000	37,532904
3784,000000	37,583244
3783,000000	37,450709
3782,000000	37,027314
3781,000000	36,531291
3780,000000	36,353245
3779,000000	36,692558
3778,000000	37,378648
3777,000000	38,047390
3776,000000	38,437172
3775,000000	38,470045
3774,000000	38,117811
3773,000000	37,367484
3772,000000	36,403534
3771,000000	35,663152
3770,000000	35,497450
3769,000000	35,800395
3768,000000	36,155214
3767,000000	36,364123
3766,000000	36,615651
3765,000000	37,060666
3764,000000	37,441520
3763,000000	37,356484
3762,000000	36,761181
3761,000000	36,034825
3760,000000	35,605750
3759,000000	35,638672
3758,000000	35,979130
3757,000000	36,200447
3756,000000	35,765102
3755,000000	34,393876
3754,000000	32,354946
3753,000000	30,330975
3752,000000	29,015308
3751,000000	28,812482
3750,000000	29,648382
3749,000000	30,811382
3748,000000	31,211473
3747,000000	30,301857
3746,000000	28,849812
3745,000000	28,411544
3744,000000	29,808522
3743,000000	32,334928
3742,000000	34,531939
3741,000000	35,440248
3740,000000	35,000565
3739,000000	33,650069
3738,000000	31,987826
3737,000000	30,668882
3736,000000	30,140197
3735,000000	30,369973
3734,000000	31,042872
3733,000000	32,003545
3732,000000	33,264672
3731,000000	34,610311
3730,000000	35,519764
3729,000000	35,665983
3728,000000	35,289468
3727,000000	34,920700
3726,000000	34,847525
3725,000000	34,989569
3724,000000	35,196684
3723,000000	35,472156
3722,000000	35,886753
3721,000000	36,426746
3720,000000	37,003706
3719,000000	37,544142
3718,000000	37,960936
3717,000000	38,037729
3716,000000	37,468949
3715,000000	36,152993
3714,000000	34,454037
3713,000000	33,074728
3712,000000	32,591450
3711,000000	33,090744
3710,000000	34,240379
3709,000000	35,600191
3708,000000	36,814289
3707,000000	37,623442
3706,000000	37,854826
3705,000000	37,513223
3704,000000	36,854995
3703,000000	36,319312
3702,000000	36,290266
3701,000000	36,816857
3700,000000	37,572148
3699,000000	38,147390
3698,000000	38,398883
3697,000000	38,443602
3696,000000	38,346233
3695,000000	37,957975
3694,000000	37,109790
3693,000000	35,830393
3692,000000	34,335954
3691,000000	32,972501
3690,000000	32,231060
3689,000000	32,592486
3688,000000	34,098680
3687,000000	36,142020
3686,000000	37,889999
3685,000000	38,899000
3684,000000	39,234537
3683,000000	39,130436
3682,000000	38,740095
3681,000000	38,110646
3680,000000	37,130824
3679,000000	35,556033
3678,000000	33,448151
3677,000000	31,589613
3676,000000	31,046627
3675,000000	32,024327
3674,000000	33,443842
3673,000000	33,997566
3672,000000	33,507551
3671,000000	33,010014
3670,000000	33,554161
3669,000000	35,199920
3668,000000	37,195788
3667,000000	38,793552
3666,000000	39,725406
3665,000000	40,111986
3664,000000	40,192030
3663,000000	40,168993
3662,000000	40,115507
3661,000000	39,907421
3660,000000	39,312753
3659,000000	38,276844
3658,000000	37,170176
3657,000000	36,608770
3656,000000	36,855847
3655,000000	37,395154
3654,000000	37,247450
3653,000000	35,869459
3652,000000	33,690239
3651,000000	31,755147
3650,000000	30,926321
3649,000000	31,433829
3648,000000	33,000533
3647,000000	35,101623
3646,000000	37,118629
3645,000000	38,547786
3644,000000	39,258609
3643,000000	39,493200
3642,000000	39,557604
3641,000000	39,572301
3640,000000	39,532720
3639,000000	39,450390
3638,000000	39,314465
3637,000000	39,045225
3636,000000	38,630393
3635,000000	38,190148
3634,000000	37,708469
3633,000000	36,806337
3632,000000	35,111050
3631,000000	32,963761
3630,000000	31,473857
3629,000000	31,625464
3628,000000	33,355275
3627,000000	35,655276
3626,000000	37,477549
3625,000000	38,389164
3624,000000	38,443117
3623,000000	37,803783
3622,000000	36,699279
3621,000000	35,573864
3620,000000	34,983389
3619,000000	35,209405
3618,000000	36,001360
3617,000000	36,770162
3616,000000	37,072905
3615,000000	36,924272
3614,000000	36,650893
3613,000000	36,481354
3612,000000	36,343964
3611,000000	36,090456
3610,000000	35,831015
3609,000000	35,909582
3608,000000	36,526349
3607,000000	37,489257
3606,000000	38,373905
3605,000000	38,868319
3604,000000	38,929145
3603,000000	38,707796
3602,000000	38,423518
3601,000000	38,252345
3600,000000	38,224275
3599,000000	38,212775
3598,000000	38,078453
3597,000000	37,835904
3596,000000	37,659635
3595,000000	37,720621
3594,000000	38,013744
3593,000000	38,300725
3592,000000	38,218881
3591,000000	37,536301
3590,000000	36,415893
3589,000000	35,401047
3588,000000	35,043314
3587,000000	35,490538
3586,000000	36,438495
3585,000000	37,439646
3584,000000	38,209699
3583,000000	38,696841
3582,000000	38,981387
3581,000000	39,169567
3580,000000	39,330846
3579,000000	39,477572
3578,000000	39,592687
3577,000000	39,678196
3576,000000	39,763015
3575,000000	39,864639
3574,000000	39,953845
3573,000000	39,932803
3572,000000	39,631108
3571,000000	38,892865
3570,000000	37,773363
3569,000000	36,657524
3568,000000	36,071541
3567,000000	36,298085
3566,000000	37,162453
3565,000000	38,203778
3564,000000	39,023309
3563,000000	39,493187
3562,000000	39,711471
3561,000000	39,843900
3560,000000	39,996606
3559,000000	40,177053
3558,000000	40,324900
3557,000000	40,366820
3556,000000	40,262443
3555,000000	40,037912
3554,000000	39,802113
3553,000000	39,697921
3552,000000	39,775799
3551,000000	39,909998
3550,000000	39,889440
3549,000000	39,625965
3548,000000	39,252728
3547,000000	39,008474
3546,000000	39,043865
3545,000000	39,340342
3544,000000	39,766501
3543,000000	40,174610
3542,000000	40,464537
3541,000000	40,600827
3540,000000	40,597130
3539,000000	40,496814
3538,000000	40,372765
3537,000000	40,315923
3536,000000	40,376737
3535,000000	40,508569
3534,000000	40,596953
3533,000000	40,559525
3532,000000	40,400957
3531,000000	40,179951
3530,000000	39,960409
3529,000000	39,799669
3528,000000	39,731932
3527,000000	39,734626
3526,000000	39,748397
3525,000000	39,757972
3524,000000	39,823515
3523,000000	39,996911
3522,000000	40,235632
3521,000000	40,439102
3520,000000	40,556811
3519,000000	40,618281
3518,000000	40,667638
3517,000000	40,710811
3516,000000	40,731326
3515,000000	40,717890
3514,000000	40,659623
3513,000000	40,543440
3512,000000	40,384268
3511,000000	40,248344
3510,000000	40,215557
3509,000000	40,301359
3508,000000	40,418018
3507,000000	40,433812
3506,000000	40,290098
3505,000000	40,066923
3504,000000	39,923697
3503,000000	39,965704
3502,000000	40,165409
3501,000000	40,400798
3500,000000	40,558498
3499,000000	40,601806
3498,000000	40,571342
3497,000000	40,539984
3496,000000	40,558753
3495,000000	40,626481
3494,000000	40,702270
3493,000000	40,745543
3492,000000	40,739728
3491,000000	40,688663
3490,000000	40,612242
3489,000000	40,549782
3488,000000	40,539999
3487,000000	40,577991
3486,000000	40,605596
3485,000000	40,566365
3484,000000	40,468176
3483,000000	40,381035
3482,000000	40,374014
3481,000000	40,461624
3480,000000	40,599707
3479,000000	40,720074
3478,000000	40,776493
3477,000000	40,773195
3476,000000	40,753866
3475,000000	40,757825
3474,000000	40,788910
3473,000000	40,825746
3472,000000	40,849109
3471,000000	40,851444
3470,000000	40,833118
3469,000000	40,805669
3468,000000	40,791280
3467,000000	40,802486
3466,000000	40,824464
3465,000000	40,830816
3464,000000	40,817008
3463,000000	40,807259
3462,000000	40,826809
3461,000000	40,876895
3460,000000	40,937728
3459,000000	40,988562
3458,000000	41,022338
3457,000000	41,045717
3456,000000	41,068129
3455,000000	41,091538
3454,000000	41,112362
3453,000000	41,125978
3452,000000	41,117701
3451,000000	41,054419
3450,000000	40,913476
3449,000000	40,734113
3448,000000	40,615895
3447,000000	40,633733
3446,000000	40,759036
3445,000000	40,892564
3444,000000	40,971078
3443,000000	41,015657
3442,000000	41,073817
3441,000000	41,150087
3440,000000	41,213783
3439,000000	41,249358
3438,000000	41,270463
3437,000000	41,292811
3436,000000	41,317580
3435,000000	41,341049
3434,000000	41,363263
3433,000000	41,384597
3432,000000	41,405312
3431,000000	41,430558
3430,000000	41,466772
3429,000000	41,512338
3428,000000	41,558547
3427,000000	41,597623
3426,000000	41,620970
3425,000000	41,613392
3424,000000	41,564670
3423,000000	41,493148
3422,000000	41,446083
3421,000000	41,465932
3420,000000	41,555846
3419,000000	41,679400
3418,000000	41,790088
3417,000000	41,860552
3416,000000	41,891939
3415,000000	41,904063
3414,000000	41,916647
3413,000000	41,935975
3412,000000	41,957187
3411,000000	41,975967
3410,000000	41,993551
3409,000000	42,011511
3408,000000	42,027888
3407,000000	42,039895
3406,000000	42,046352
3405,000000	42,047043
3404,000000	42,044449
3403,000000	42,045809
3402,000000	42,056211
3401,000000	42,069561
3400,000000	42,075582
3399,000000	42,077946
3398,000000	42,093728
3397,000000	42,127609
3396,000000	42,158209
3395,000000	42,163620
3394,000000	42,154952
3393,000000	42,169686
3392,000000	42,230350
3391,000000	42,320003
3390,000000	42,400411
3389,000000	42,445256
3388,000000	42,453675
3387,000000	42,443236
3386,000000	42,437431
3385,000000	42,453819
3384,000000	42,494058
3383,000000	42,543995
3382,000000	42,586600
3381,000000	42,615526
3380,000000	42,635823
3379,000000	42,654434
3378,000000	42,673657
3377,000000	42,692937
3376,000000	42,712742
3375,000000	42,733795
3374,000000	42,753279
3373,000000	42,764539
3372,000000	42,762316
3371,000000	42,747574
3370,000000	42,726543
3369,000000	42,706640
3368,000000	42,695446
3367,000000	42,700800
3366,000000	42,725792
3365,000000	42,762552
3364,000000	42,797140
3363,000000	42,823514
3362,000000	42,848508
3361,000000	42,879682
3360,000000	42,912664
3359,000000	42,936174
3358,000000	42,947438
3357,000000	42,956692
3356,000000	42,975714
3355,000000	43,005802
3354,000000	43,037927
3353,000000	43,062547
3352,000000	43,078579
3351,000000	43,093482
3350,000000	43,114701
3349,000000	43,141646
3348,000000	43,167398
3347,000000	43,187063
3346,000000	43,201162
3345,000000	43,211776
3344,000000	43,220296
3343,000000	43,229139
3342,000000	43,239670
3341,000000	43,246554
3340,000000	43,241015
3339,000000	43,223947
3338,000000	43,210940
3337,000000	43,219297
3336,000000	43,252561
3335,000000	43,300418
3334,000000	43,349331
3333,000000	43,389447
3332,000000	43,415687
3331,000000	43,428298
3330,000000	43,431682
3329,000000	43,430338
3328,000000	43,427720
3327,000000	43,429581
3326,000000	43,443203
3325,000000	43,470277
3324,000000	43,504461
3323,000000	43,538283
3322,000000	43,568313
3321,000000	43,592636
3320,000000	43,609664
3319,000000	43,622111
3318,000000	43,635168
3317,000000	43,647408
3316,000000	43,651213
3315,000000	43,645973
3314,000000	43,641853
3313,000000	43,644506
3312,000000	43,645569
3311,000000	43,637762
3310,000000	43,631713
3309,000000	43,645547
3308,000000	43,682148
3307,000000	43,727263
3306,000000	43,767712
3305,000000	43,801890
3304,000000	43,832931
3303,000000	43,861194
3302,000000	43,884570
3301,000000	43,900085
3300,000000	43,905708
3299,000000	43,905331
3298,000000	43,909007
3297,000000	43,921748
3296,000000	43,934816
3295,000000	43,936155
3294,000000	43,927907
3293,000000	43,925948
3292,000000	43,942329
3291,000000	43,974871
3290,000000	44,014199
3289,000000	44,052874
3288,000000	44,085974
3287,000000	44,109549
3286,000000	44,122793
3285,000000	44,129735
3284,000000	44,136720
3283,000000	44,148411
3282,000000	44,164827
3281,000000	44,180274
3280,000000	44,186410
3279,000000	44,179100
3278,000000	44,161922
3277,000000	44,143172
3276,000000	44,132072
3275,000000	44,137327
3274,000000	44,163607
3273,000000	44,206503
3272,000000	44,254972
3271,000000	44,300712
3270,000000	44,341532
3269,000000	44,375182
3268,000000	44,397174
3267,000000	44,408345
3266,000000	44,417531
3265,000000	44,431770
3264,000000	44,448843
3263,000000	44,463502
3262,000000	44,475657
3261,000000	44,487566
3260,000000	44,497865
3259,000000	44,503242
3258,000000	44,502681
3257,000000	44,497883
3256,000000	44,494596
3255,000000	44,504661
3254,000000	44,538111
3253,000000	44,589091
3252,000000	44,637694
3251,000000	44,669395
3250,000000	44,683923
3249,000000	44,683097
3248,000000	44,663947
3247,000000	44,633700
3246,000000	44,617893
3245,000000	44,638358
3244,000000	44,687951
3243,000000	44,739405
3242,000000	44,775114
3241,000000	44,796605
3240,000000	44,810808
3239,000000	44,820586
3238,000000	44,828478
3237,000000	44,837703
3236,000000	44,847326
3235,000000	44,854411
3234,000000	44,861417
3233,000000	44,874200
3232,000000	44,892876
3231,000000	44,911761
3230,000000	44,928855
3229,000000	44,948969
3228,000000	44,976360
3227,000000	45,009170
3226,000000	45,041341
3225,000000	45,065980
3224,000000	45,076860
3223,000000	45,071774
3222,000000	45,057002
3221,000000	45,046719
3220,000000	45,054795
3219,000000	45,083230
3218,000000	45,116960
3217,000000	45,135306
3216,000000	45,134018
3215,000000	45,132450
3214,000000	45,150786
3213,000000	45,183791
3212,000000	45,209657
3211,000000	45,222190
3210,000000	45,239254
3209,000000	45,274940
3208,000000	45,319844
3207,000000	45,356239
3206,000000	45,380298
3205,000000	45,398906
3204,000000	45,414846
3203,000000	45,425724
3202,000000	45,430199
3201,000000	45,426904
3200,000000	45,414872
3199,000000	45,402975
3198,000000	45,410007
3197,000000	45,445588
3196,000000	45,497023
3195,000000	45,543523
3194,000000	45,577108
3193,000000	45,601942
3192,000000	45,621825
3191,000000	45,637794
3190,000000	45,651940
3189,000000	45,663700
3188,000000	45,667674
3187,000000	45,663886
3186,000000	45,664801
3185,000000	45,683309
3184,000000	45,716695
3183,000000	45,749037
3182,000000	45,765211
3181,000000	45,759982
3180,000000	45,741228
3179,000000	45,730343
3178,000000	45,749254
3177,000000	45,798099
3176,000000	45,852828
3175,000000	45,891276
3174,000000	45,913780
3173,000000	45,931570
3172,000000	45,947408
3171,000000	45,958649
3170,000000	45,969646
3169,000000	45,987096
3168,000000	46,008547
3167,000000	46,027311
3166,000000	46,043996
3165,000000	46,063128
3164,000000	46,083223
3163,000000	46,100231
3162,000000	46,116026
3161,000000	46,134179
3160,000000	46,152128
3159,000000	46,166428
3158,000000	46,180395
3157,000000	46,197430
3156,000000	46,212295
3155,000000	46,218976
3154,000000	46,222494
3153,000000	46,233409
3152,000000	46,254234
3151,000000	46,279808
3150,000000	46,306516
3149,000000	46,332891
3148,000000	46,355241
3147,000000	46,371346
3146,000000	46,384932
3145,000000	46,399777
3144,000000	46,413573
3143,000000	46,423757
3142,000000	46,434006
3141,000000	46,448656
3140,000000	46,466477
3139,000000	46,485445
3138,000000	46,505487
3137,000000	46,520557
3136,000000	46,518393
3135,000000	46,499278
3134,000000	46,486148
3133,000000	46,503018
3132,000000	46,546982
3131,000000	46,592431
3130,000000	46,619111
3129,000000	46,627283
3128,000000	46,628353
3127,000000	46,630904
3126,000000	46,635253
3125,000000	46,635800
3124,000000	46,629790
3123,000000	46,625096
3122,000000	46,633342
3121,000000	46,652694
3120,000000	46,667005
3119,000000	46,667385
3118,000000	46,665178
3117,000000	46,677241
3116,000000	46,707418
3115,000000	46,749642
3114,000000	46,797915
3113,000000	46,844291
3112,000000	46,876821
3111,000000	46,891860
3110,000000	46,901481
3109,000000	46,919057
3108,000000	46,943576
3107,000000	46,965684
3106,000000	46,980183
3105,000000	46,983679
3104,000000	46,971324
3103,000000	46,948848
3102,000000	46,939199
3101,000000	46,960889
3100,000000	47,003676
3099,000000	47,038660
3098,000000	47,051506
3097,000000	47,055154
3096,000000	47,071730
3095,000000	47,111116
3094,000000	47,165382
3093,000000	47,216574
3092,000000	47,250248
3091,000000	47,266713
3090,000000	47,277127
3089,000000	47,287989
3088,000000	47,295987
3087,000000	47,299720
3086,000000	47,305230
3085,000000	47,313947
3084,000000	47,316391
3083,000000	47,306387
3082,000000	47,292740
3081,000000	47,288788
3080,000000	47,299012
3079,000000	47,323253
3078,000000	47,363212
3077,000000	47,414296
3076,000000	47,460417
3075,000000	47,489003
3074,000000	47,504399
3073,000000	47,516675
3072,000000	47,524040
3071,000000	47,516447
3070,000000	47,490599
3069,000000	47,452714
3068,000000	47,413279
3067,000000	47,387211
3066,000000	47,390517
3065,000000	47,425965
3064,000000	47,477155
3063,000000	47,524695
3062,000000	47,561376
3061,000000	47,585168
3060,000000	47,589441
3059,000000	47,573775
3058,000000	47,556261
3057,000000	47,560836
3056,000000	47,594375
3055,000000	47,644020
3054,000000	47,691421
3053,000000	47,721984
3052,000000	47,728434
3051,000000	47,718106
3050,000000	47,712100
3049,000000	47,726706
3048,000000	47,757763
3047,000000	47,789375
3046,000000	47,812511
3045,000000	47,827747
3044,000000	47,837225
3043,000000	47,843731
3042,000000	47,853168
3041,000000	47,868276
3040,000000	47,882536
3039,000000	47,886630
3038,000000	47,878115
3037,000000	47,859750
3036,000000	47,833615
3035,000000	47,802332
3034,000000	47,772472
3033,000000	47,753026
3032,000000	47,752908
3031,000000	47,778271
3030,000000	47,823090
3029,000000	47,863431
3028,000000	47,874517
3027,000000	47,856672
3026,000000	47,832954
3025,000000	47,818669
3024,000000	47,807696
3023,000000	47,791497
3022,000000	47,773379
3021,000000	47,755897
3020,000000	47,732167
3019,000000	47,701658
3018,000000	47,680614
3017,000000	47,683381
3016,000000	47,705305
3015,000000	47,735467
3014,000000	47,775424
3013,000000	47,833067
3012,000000	47,907700
3011,000000	47,992601
3010,000000	48,081795
3009,000000	48,164299
3008,000000	48,222353
3007,000000	48,249297
3006,000000	48,261018
3005,000000	48,278499
3004,000000	48,306168
3003,000000	48,335826
3002,000000	48,362284
3001,000000	48,383735
3000,000000	48,396376
2999,000000	48,399637
2998,000000	48,400017
2997,000000	48,401036
2996,000000	48,397890
2995,000000	48,390164
2994,000000	48,389087
2993,000000	48,401783
2992,000000	48,418204
2991,000000	48,424380
2990,000000	48,420462
2989,000000	48,415528
2988,000000	48,413149
2987,000000	48,411768
2986,000000	48,410953
2985,000000	48,407457
2984,000000	48,392903
2983,000000	48,364435
2982,000000	48,330689
2981,000000	48,300175
2980,000000	48,271697
2979,000000	48,242007
2978,000000	48,211752
2977,000000	48,177670
2976,000000	48,130762
2975,000000	48,070507
2974,000000	48,008858
2973,000000	47,951303
2972,000000	47,886501
2971,000000	47,803838
2970,000000	47,709388
2969,000000	47,614644
2968,000000	47,521724
2967,000000	47,430397
2966,000000	47,347613
2965,000000	47,278643
2964,000000	47,218689
2963,000000	47,163801
2962,000000	47,119716
2961,000000	47,090337
2960,000000	47,068813
2959,000000	47,049615
2958,000000	47,038111
2957,000000	47,037584
2956,000000	47,038906
2955,000000	47,034344
2954,000000	47,029956
2953,000000	47,032905
2952,000000	47,036724
2951,000000	47,031072
2950,000000	47,015728
2949,000000	46,994109
2948,000000	46,962707
2947,000000	46,917894
2946,000000	46,864041
2945,000000	46,804586
2944,000000	46,734731
2943,000000	46,651456
2942,000000	46,560855
2941,000000	46,466965
2940,000000	46,365068
2939,000000	46,255006
2938,000000	46,148934
2937,000000	46,056193
2936,000000	45,972015
2935,000000	45,890106
2934,000000	45,813584
2933,000000	45,743591
2932,000000	45,671164
2931,000000	45,591864
2930,000000	45,516383
2929,000000	45,455802
2928,000000	45,408817
2927,000000	45,374546
2926,000000	45,364032
2925,000000	45,387359
2924,000000	45,441042
2923,000000	45,519771
2922,000000	45,627678
2921,000000	45,765478
2920,000000	45,919773
2919,000000	46,077535
2918,000000	46,240484
2917,000000	46,412859
2916,000000	46,587710
2915,000000	46,757602
2914,000000	46,926177
2913,000000	47,096133
2912,000000	47,256903
2911,000000	47,397559
2910,000000	47,521131
2909,000000	47,634403
2908,000000	47,734877
2907,000000	47,819989
2906,000000	47,897735
2905,000000	47,975429
2904,000000	48,048631
2903,000000	48,112724
2902,000000	48,174139
2901,000000	48,238527
2900,000000	48,299179
2899,000000	48,349384
2898,000000	48,394971
2897,000000	48,443152
2896,000000	48,490382
2895,000000	48,532579
2894,000000	48,575408
2893,000000	48,622607
2892,000000	48,665949
2891,000000	48,698678
2890,000000	48,727270
2889,000000	48,758346
2888,000000	48,786034
2887,000000	48,803878
2886,000000	48,817050
2885,000000	48,830755
2884,000000	48,838724
2883,000000	48,835261
2882,000000	48,826633
2881,000000	48,818543
2880,000000	48,804519
2879,000000	48,778391
2878,000000	48,745875
2877,000000	48,711976
2876,000000	48,669951
2875,000000	48,615168
2874,000000	48,556935
2873,000000	48,503394
2872,000000	48,446853
2871,000000	48,376546
2870,000000	48,294019
2869,000000	48,203455
2868,000000	48,100103
2867,000000	47,981620
2866,000000	47,859613
2865,000000	47,746518
2864,000000	47,642956
2863,000000	47,549491
2862,000000	47,478220
2861,000000	47,439281
2860,000000	47,427190
2859,000000	47,432748
2858,000000	47,456934
2857,000000	47,500688
2856,000000	47,554072
2855,000000	47,608821
2854,000000	47,670740
2853,000000	47,747764
2852,000000	47,837777
2851,000000	47,939551
2850,000000	48,062557
2849,000000	48,212128
2848,000000	48,376301
2847,000000	48,539611
2846,000000	48,698462
2845,000000	48,852259
2844,000000	48,992518
2843,000000	49,113218
2842,000000	49,220600
2841,000000	49,320978
2840,000000	49,410776
2839,000000	49,488604
2838,000000	49,563304
2837,000000	49,639127
2836,000000	49,706857
2835,000000	49,760838
2834,000000	49,810351
2833,000000	49,863015
2832,000000	49,911827
2831,000000	49,950805
2830,000000	49,987910
2829,000000	50,029634
2828,000000	50,067966
2827,000000	50,095959
2826,000000	50,121732
2825,000000	50,153201
2824,000000	50,183640
2823,000000	50,205994
2822,000000	50,227101
2821,000000	50,254121
2820,000000	50,280700
2819,000000	50,300365
2818,000000	50,319419
2817,000000	50,343234
2816,000000	50,363884
2815,000000	50,375051
2814,000000	50,385005
2813,000000	50,401155
2812,000000	50,416346
2811,000000	50,423700
2810,000000	50,430823
2809,000000	50,445075
2808,000000	50,459260
2807,000000	50,465961
2806,000000	50,471562
2805,000000	50,482362
2804,000000	50,491111
2803,000000	50,491448
2802,000000	50,491401
2801,000000	50,498464
2800,000000	50,505867
2799,000000	50,507456
2798,000000	50,511235
2797,000000	50,524037
2796,000000	50,537389
2795,000000	50,543403
2794,000000	50,549795
2793,000000	50,564509
2792,000000	50,580566
2791,000000	50,590877
2790,000000	50,603489
2789,000000	50,626725
2788,000000	50,653240
2787,000000	50,674180
2786,000000	50,694945
2785,000000	50,721984
2784,000000	50,748236
2783,000000	50,766504
2782,000000	50,783708
2781,000000	50,806879
2780,000000	50,828720
2779,000000	50,841651
2778,000000	50,852300
2777,000000	50,868029
2776,000000	50,883154
2775,000000	50,892439
2774,000000	50,903521
2773,000000	50,921916
2772,000000	50,938340
2771,000000	50,945308
2770,000000	50,951379
2769,000000	50,964652
2768,000000	50,977754
2767,000000	50,983437
2766,000000	50,989412
2765,000000	51,002700
2764,000000	51,015062
2763,000000	51,019169
2762,000000	51,023602
2761,000000	51,036279
2760,000000	51,048592
2759,000000	51,051935
2758,000000	51,054374
2757,000000	51,064882
2756,000000	51,076294
2755,000000	51,080189
2754,000000	51,083357
2753,000000	51,093546
2752,000000	51,103611
2751,000000	51,105965
2750,000000	51,108159
2749,000000	51,118115
2748,000000	51,128541
2747,000000	51,131694
2746,000000	51,134842
2745,000000	51,145361
2744,000000	51,155551
2743,000000	51,157970
2742,000000	51,160670
2741,000000	51,171328
2740,000000	51,181706
2739,000000	51,183721
2738,000000	51,185724
2737,000000	51,196540
2736,000000	51,208679
2735,000000	51,213396
2734,000000	51,217329
2733,000000	51,228160
2732,000000	51,238869
2731,000000	51,242220
2730,000000	51,245626
2729,000000	51,255864
2728,000000	51,264653
2727,000000	51,265201
2726,000000	51,267244
2725,000000	51,279270
2724,000000	51,292022
2723,000000	51,295963
2722,000000	51,299076
2721,000000	51,310448
2720,000000	51,322375
2719,000000	51,326044
2718,000000	51,329044
2717,000000	51,340039
2716,000000	51,351500
2715,000000	51,355110
2714,000000	51,358489
2713,000000	51,369638
2712,000000	51,380159
2711,000000	51,381544
2710,000000	51,382298
2709,000000	51,391680
2708,000000	51,401820
2707,000000	51,403549
2706,000000	51,404471
2705,000000	51,413767
2704,000000	51,424523
2703,000000	51,428515
2702,000000	51,433285
2701,000000	51,446910
2700,000000	51,461288
2699,000000	51,467825
2698,000000	51,474477
2697,000000	51,489732
2696,000000	51,505248
2695,000000	51,511765
2694,000000	51,516912
2693,000000	51,529634
2692,000000	51,542678
2691,000000	51,547805
2690,000000	51,552965
2689,000000	51,566458
2688,000000	51,579843
2687,000000	51,584096
2686,000000	51,587142
2685,000000	51,597783
2684,000000	51,608046
2683,000000	51,609381
2682,000000	51,610178
2681,000000	51,619410
2680,000000	51,628768
2679,000000	51,629140
2678,000000	51,628825
2677,000000	51,637320
2676,000000	51,646929
2675,000000	51,648618
2674,000000	51,650174
2673,000000	51,660270
2672,000000	51,670428
2671,000000	51,671326
2670,000000	51,671395
2669,000000	51,680401
2668,000000	51,690501
2667,000000	51,691937
2666,000000	51,691902
2665,000000	51,699411
2664,000000	51,707204
2663,000000	51,706989
2662,000000	51,706984
2661,000000	51,715863
2660,000000	51,725057
2659,000000	51,725518
2658,000000	51,725929
2657,000000	51,735877
2656,000000	51,746964
2655,000000	51,749482
2654,000000	51,751390
2653,000000	51,762129
2652,000000	51,773479
2651,000000	51,775758
2650,000000	51,777026
2649,000000	51,786970
2648,000000	51,797743
2647,000000	51,799835
2646,000000	51,801259
2645,000000	51,811734
2644,000000	51,823609
2643,000000	51,827117
2642,000000	51,829295
2641,000000	51,838571
2640,000000	51,847006
2639,000000	51,846641
2638,000000	51,847216
2637,000000	51,858632
2636,000000	51,871705
2635,000000	51,875415
2634,000000	51,877028
2633,000000	51,885981
2632,000000	51,894357
2631,000000	51,893199
2630,000000	51,891569
2629,000000	51,899948
2628,000000	51,910110
2627,000000	51,911567
2626,000000	51,911665
2625,000000	51,919900
2624,000000	51,928569
2623,000000	51,928487
2622,000000	51,928251
2621,000000	51,937683
2620,000000	51,948376
2619,000000	51,949964
2618,000000	51,949937
2617,000000	51,957793
2616,000000	51,965784
2615,000000	51,964975
2614,000000	51,964134
2613,000000	51,972834
2612,000000	51,982111
2611,000000	51,981443
2610,000000	51,978853
2609,000000	51,984349
2608,000000	51,990141
2607,000000	51,987052
2606,000000	51,983867
2605,000000	51,990380
2604,000000	51,997504
2603,000000	51,994729
2602,000000	51,990321
2601,000000	51,994513
2600,000000	51,998933
2599,000000	51,993540
2598,000000	51,986914
2597,000000	51,989468
2596,000000	51,992948
2595,000000	51,987352
2594,000000	51,981613
2593,000000	51,986572
2592,000000	51,994022
2591,000000	51,993136
2590,000000	51,991598
2589,000000	51,999391
2588,000000	52,008416
2587,000000	52,008837
2586,000000	52,009513
2585,000000	52,020961
2584,000000	52,034493
2583,000000	52,038834
2582,000000	52,041346
2581,000000	52,052188
2580,000000	52,063797
2579,000000	52,066725
2578,000000	52,069209
2577,000000	52,080531
2576,000000	52,091656
2575,000000	52,092859
2574,000000	52,093496
2573,000000	52,103497
2572,000000	52,112822
2571,000000	52,110235
2570,000000	52,105560
2569,000000	52,111350
2568,000000	52,119957
2567,000000	52,119932
2566,000000	52,118528
2565,000000	52,125770
2564,000000	52,133317
2563,000000	52,130900
2562,000000	52,127243
2561,000000	52,133164
2560,000000	52,140287
2559,000000	52,138171
2558,000000	52,135128
2557,000000	52,141266
2556,000000	52,147553
2555,000000	52,143882
2554,000000	52,139956
2553,000000	52,146847
2552,000000	52,155023
2551,000000	52,152994
2550,000000	52,149943
2549,000000	52,157291
2548,000000	52,165674
2547,000000	52,162920
2546,000000	52,157856
2545,000000	52,162912
2544,000000	52,170366
2543,000000	52,168714
2542,000000	52,165819
2541,000000	52,172538
2540,000000	52,180312
2539,000000	52,178016
2538,000000	52,174480
2537,000000	52,180977
2536,000000	52,188568
2535,000000	52,185541
2534,000000	52,180908
2533,000000	52,186938
2532,000000	52,195163
2531,000000	52,193441
2530,000000	52,189745
2529,000000	52,196078
2528,000000	52,204436
2527,000000	52,202927
2526,000000	52,199253
2525,000000	52,204985
2524,000000	52,212533
2523,000000	52,210936
2522,000000	52,208234
2521,000000	52,215159
2520,000000	52,222689
2519,000000	52,219070
2518,000000	52,212898
2517,000000	52,216084
2516,000000	52,220845
2515,000000	52,215857
2514,000000	52,209195
2513,000000	52,211876
2512,000000	52,215826
2511,000000	52,211000
2510,000000	52,206971
2509,000000	52,214002
2508,000000	52,220613
2507,000000	52,213891
2506,000000	52,204312
2505,000000	52,206387
2504,000000	52,211744
2503,000000	52,206724
2502,000000	52,199052
2501,000000	52,201783
2500,000000	52,207387
2499,000000	52,203438
2498,000000	52,197444
2497,000000	52,201187
2496,000000	52,206399
2495,000000	52,201040
2494,000000	52,193823
2493,000000	52,197411
2492,000000	52,203448
2491,000000	52,199139
2490,000000	52,192782
2489,000000	52,197262
2488,000000	52,204466
2487,000000	52,201164
2486,000000	52,194670
2485,000000	52,197414
2484,000000	52,202071
2483,000000	52,197028
2482,000000	52,190711
2481,000000	52,195274
2480,000000	52,201681
2479,000000	52,196683
2478,000000	52,188572
2477,000000	52,191030
2476,000000	52,196614
2475,000000	52,192327
2474,000000	52,185547
2473,000000	52,188855
2472,000000	52,194403
2471,000000	52,189461
2470,000000	52,182130
2469,000000	52,185585
2468,000000	52,191962
2467,000000	52,187787
2466,000000	52,180450
2465,000000	52,183121
2464,000000	52,188538
2463,000000	52,183749
2462,000000	52,176312
2461,000000	52,179483
2460,000000	52,185993
2459,000000	52,182517
2458,000000	52,175790
2457,000000	52,178466
2456,000000	52,183538
2455,000000	52,178960
2454,000000	52,172868
2453,000000	52,178110
2452,000000	52,186085
2451,000000	52,182690
2450,000000	52,175778
2449,000000	52,180124
2448,000000	52,189021
2447,000000	52,187845
2446,000000	52,182110
2445,000000	52,185015
2444,000000	52,190569
2443,000000	52,186136
2442,000000	52,178858
2441,000000	52,182391
2440,000000	52,190109
2439,000000	52,188048
2438,000000	52,182259
2437,000000	52,186158
2436,000000	52,193383
2435,000000	52,189928
2434,000000	52,181639
2433,000000	52,182622
2432,000000	52,188039
2431,000000	52,184814
2430,000000	52,177865
2429,000000	52,179488
2428,000000	52,183941
2427,000000	52,178905
2426,000000	52,170873
2425,000000	52,173143
2424,000000	52,179496
2423,000000	52,176048
2422,000000	52,168202
2421,000000	52,169700
2420,000000	52,175577
2419,000000	52,172534
2418,000000	52,165542
2417,000000	52,167641
2416,000000	52,173589
2415,000000	52,169989
2414,000000	52,161982
2413,000000	52,163319
2412,000000	52,169249
2411,000000	52,165618
2410,000000	52,156417
2409,000000	52,155771
2408,000000	52,160966
2407,000000	52,159338
2406,000000	52,153943
2405,000000	52,156539
2404,000000	52,162579
2403,000000	52,159073
2402,000000	52,150328
2401,000000	52,150300
2400,000000	52,155854
2399,000000	52,153372
2398,000000	52,145382
2397,000000	52,145152
2396,000000	52,149981
2395,000000	52,145534
2394,000000	52,131654
2393,000000	52,117788
2392,000000	52,096019
2391,000000	52,041012
2390,000000	51,935560
2389,000000	51,767382
2388,000000	51,502705
2387,000000	51,089641
2386,000000	50,480858
2385,000000	49,644524
2384,000000	48,546282
2383,000000	47,156194
2382,000000	45,484275
2381,000000	43,578143
2380,000000	41,500685
2379,000000	39,312904
2378,000000	37,085018
2377,000000	34,893450
2376,000000	32,787902
2375,000000	30,784777
2374,000000	28,892851
2373,000000	27,132499
2372,000000	25,515723
2371,000000	24,036214
2370,000000	22,688018
2369,000000	21,482717
2368,000000	20,432755
2367,000000	19,524973
2366,000000	18,745398
2365,000000	18,107160
2364,000000	17,632096
2363,000000	17,311866
2362,000000	17,112507
2361,000000	17,035319
2360,000000	17,127213
2359,000000	17,422607
2358,000000	17,919736
2357,000000	18,621101
2356,000000	19,575131
2355,000000	20,843802
2354,000000	22,489118
2353,000000	24,613274
2352,000000	27,248772
2351,000000	30,040611
2350,000000	32,089104
2349,000000	32,435358
2348,000000	30,887728
2347,000000	28,302028
2346,000000	25,900204
2345,000000	24,348188
2344,000000	23,551165
2343,000000	23,147279
2342,000000	22,954145
2341,000000	22,933525
2340,000000	23,024169
2339,000000	23,151455
2338,000000	23,318283
2337,000000	23,547035
2336,000000	23,789010
2335,000000	23,957319
2334,000000	24,022805
2333,000000	24,036631
2332,000000	24,092706
2331,000000	24,299857
2330,000000	24,734581
2329,000000	25,366154
2328,000000	26,054011
2327,000000	26,654353
2326,000000	27,119296
2325,000000	27,498622
2324,000000	27,887838
2323,000000	28,395331
2322,000000	29,099554
2321,000000	30,003580
2320,000000	31,049926
2319,000000	32,177085
2318,000000	33,322670
2317,000000	34,383362
2316,000000	35,254680
2315,000000	35,941720
2314,000000	36,570282
2313,000000	37,260984
2312,000000	38,036428
2311,000000	38,867412
2310,000000	39,737920
2309,000000	40,630891
2308,000000	41,507433
2307,000000	42,345763
2306,000000	43,156348
2305,000000	43,928585
2304,000000	44,613134
2303,000000	45,190182
2302,000000	45,704472
2301,000000	46,200750
2300,000000	46,670020
2299,000000	47,094958
2298,000000	47,495091
2297,000000	47,888636
2296,000000	48,258032
2295,000000	48,590118
2294,000000	48,909800
2293,000000	49,235538
2292,000000	49,545262
2291,000000	49,822051
2290,000000	50,089690
2289,000000	50,368249
2288,000000	50,637805
2287,000000	50,878933
2286,000000	51,103796
2285,000000	51,309094
2284,000000	51,446667
2283,000000	51,484593
2282,000000	51,455462
2281,000000	51,408384
2280,000000	51,351572
2279,000000	51,281425
2278,000000	51,222067
2277,000000	51,192225
2276,000000	51,171695
2275,000000	51,140805
2274,000000	51,118264
2273,000000	51,121846
2272,000000	51,131203
2271,000000	51,126530
2270,000000	51,126529
2269,000000	51,149571
2268,000000	51,176523
2267,000000	51,189296
2266,000000	51,207846
2265,000000	51,250390
2264,000000	51,296097
2263,000000	51,324779
2262,000000	51,355530
2261,000000	51,407411
2260,000000	51,460729
2259,000000	51,495790
2258,000000	51,531109
2257,000000	51,585014
2256,000000	51,637333
2255,000000	51,668574
2254,000000	51,698156
2253,000000	51,745510
2252,000000	51,791122
2251,000000	51,815311
2250,000000	51,837051
2249,000000	51,875327
2248,000000	51,910757
2247,000000	51,924394
2246,000000	51,936610
2245,000000	51,967451
2244,000000	51,997401
2243,000000	52,006340
2242,000000	52,013525
2241,000000	52,038652
2240,000000	52,062588
2239,000000	52,066187
2238,000000	52,069661
2237,000000	52,092785
2236,000000	52,114990
2235,000000	52,115643
2234,000000	52,114966
2233,000000	52,134275
2232,000000	52,153997
2231,000000	52,153188
2230,000000	52,151472
2229,000000	52,170380
2228,000000	52,190619
2227,000000	52,190505
2226,000000	52,188100
2225,000000	52,203490
2224,000000	52,216986
2223,000000	52,207611
2222,000000	52,195385
2221,000000	52,202386
2220,000000	52,210390
2219,000000	52,198675
2218,000000	52,186596
2217,000000	52,194915
2216,000000	52,203921
2215,000000	52,192070
2214,000000	52,178992
2213,000000	52,186561
2212,000000	52,195669
2211,000000	52,184854
2210,000000	52,173633
2209,000000	52,183627
2208,000000	52,194495
2207,000000	52,183721
2206,000000	52,171035
2205,000000	52,179805
2204,000000	52,191252
2203,000000	52,182392
2202,000000	52,171194
2201,000000	52,179765
2200,000000	52,189561
2199,000000	52,179140
2198,000000	52,168402
2197,000000	52,179879
2196,000000	52,193511
2195,000000	52,184794
2194,000000	52,171703
2193,000000	52,177820
2192,000000	52,186514
2191,000000	52,176204
2190,000000	52,164956
2189,000000	52,173736
2188,000000	52,183356
2187,000000	52,172097
2186,000000	52,159821
2185,000000	52,169091
2184,000000	52,180189
2183,000000	52,170166
2182,000000	52,157908
2181,000000	52,165973
2180,000000	52,174899
2179,000000	52,162513
2178,000000	52,148725
2177,000000	52,156200
2176,000000	52,164350
2175,000000	52,149478
2174,000000	52,131560
2173,000000	52,134359
2172,000000	52,138327
2171,000000	52,120552
2170,000000	52,102500
2169,000000	52,109421
2168,000000	52,121359
2167,000000	52,112011
2166,000000	52,098305
2165,000000	52,102871
2164,000000	52,107115
2163,000000	52,089941
2162,000000	52,074203
2161,000000	52,084682
2160,000000	52,098799
2159,000000	52,088676
2158,000000	52,073119
2157,000000	52,078417
2156,000000	52,086156
2155,000000	52,071565
2154,000000	52,054065
2153,000000	52,059486
2152,000000	52,068744
2151,000000	52,056014
2150,000000	52,039304
2149,000000	52,043416
2148,000000	52,049798
2147,000000	52,034441
2146,000000	52,017494
2145,000000	52,024084
2144,000000	52,033752
2143,000000	52,019569
2142,000000	52,000412
2141,000000	52,002299
2140,000000	52,006367
2139,000000	51,986625
2138,000000	51,963138
2137,000000	51,965141
2136,000000	51,977530
2135,000000	51,974295
2134,000000	51,968495
2133,000000	51,979337
2132,000000	51,986775
2131,000000	51,969541
2130,000000	51,950741
2129,000000	51,956210
2128,000000	51,964848
2127,000000	51,950334
2126,000000	51,932367
2125,000000	51,937165
2124,000000	51,945555
2123,000000	51,932103
2122,000000	51,915832
2121,000000	51,921940
2120,000000	51,930800
2119,000000	51,915679
2118,000000	51,893267
2117,000000	51,887614
2116,000000	51,884422
2115,000000	51,867557
2114,000000	51,860378
2113,000000	51,880956
2112,000000	51,899512
2111,000000	51,888663
2110,000000	51,873378
2109,000000	51,881757
2108,000000	51,892368
2107,000000	51,880015
2106,000000	51,867515
2105,000000	51,879861
2104,000000	51,892555
2103,000000	51,879067
2102,000000	51,862867
2101,000000	51,870983
2100,000000	51,880976
2099,000000	51,867551
2098,000000	51,853812
2097,000000	51,864717
2096,000000	51,875991
2095,000000	51,861584
2094,000000	51,842290
2093,000000	51,836753
2092,000000	51,818531
2091,000000	51,774842
2090,000000	51,751797
2089,000000	51,782043
2088,000000	51,824368
2087,000000	51,832129
2086,000000	51,827166
2085,000000	51,843575
2084,000000	51,858067
2083,000000	51,840985
2082,000000	51,820531
2081,000000	51,828252
2080,000000	51,835355
2079,000000	51,810951
2078,000000	51,787959
2077,000000	51,803018
2076,000000	51,825340
2075,000000	51,816363
2074,000000	51,803032
2073,000000	51,821406
2072,000000	51,843263
2071,000000	51,832626
2070,000000	51,815338
2069,000000	51,815500
2068,000000	51,785488
2067,000000	51,688212
2066,000000	51,593510
2065,000000	51,595235
2064,000000	51,676484
2063,000000	51,746655
2062,000000	51,775000
2061,000000	51,795560
2060,000000	51,816996
2059,000000	51,819257
2058,000000	51,814831
2057,000000	51,830239
2056,000000	51,847970
2055,000000	51,838866
2054,000000	51,823742
2053,000000	51,835490
2052,000000	51,853672
2051,000000	51,845015
2050,000000	51,829651
2049,000000	51,839632
2048,000000	51,852060
2047,000000	51,833911
2046,000000	51,806903
2045,000000	51,797189
2044,000000	51,771210
2043,000000	51,702023
2042,000000	51,648206
2041,000000	51,678268
2040,000000	51,760122
2039,000000	51,811978
2038,000000	51,824146
2037,000000	51,840508
2036,000000	51,860777
2035,000000	51,853501
2034,000000	51,834909
2033,000000	51,843066
2032,000000	51,860735
2031,000000	51,847464
2030,000000	51,819918
2029,000000	51,820049
2028,000000	51,834100
2027,000000	51,823907
2026,000000	51,804740
2025,000000	51,812398
2024,000000	51,828185
2023,000000	51,815976
2022,000000	51,789842
2021,000000	51,762043
2020,000000	51,677847
2019,000000	51,507017
2018,000000	51,355042
2017,000000	51,364540
2016,000000	51,526729
2015,000000	51,699368
2014,000000	51,794463
2013,000000	51,836746
2012,000000	51,855662
2011,000000	51,839287
2010,000000	51,802194
2009,000000	51,792497
2008,000000	51,813425
2007,000000	51,822864
2006,000000	51,816772
2005,000000	51,830073
2004,000000	51,855418
2003,000000	51,848316
2002,000000	51,813158
2001,000000	51,797817
2000,000000	51,803745
1999,000000	51,793218
1998,000000	51,780208
1997,000000	51,802356
1996,000000	51,790823
1995,000000	51,599709
1994,000000	51,224640
1993,000000	50,889719
1992,000000	50,828209
1991,000000	51,032439
1990,000000	51,299347
1989,000000	51,474684
1988,000000	51,568420
1987,000000	51,652701
1986,000000	51,738710
1985,000000	51,788286
1984,000000	51,790598
1983,000000	51,777229
1982,000000	51,774301
1981,000000	51,775923
1980,000000	51,769078
1979,000000	51,758041
1978,000000	51,753062
1977,000000	51,751608
1976,000000	51,745977
1975,000000	51,738570
1974,000000	51,736898
1973,000000	51,741022
1972,000000	51,735070
1971,000000	51,675968
1970,000000	51,506599
1969,000000	51,233546
1968,000000	50,995267
1967,000000	50,973750
1966,000000	51,194726
1965,000000	51,475732
1964,000000	51,625655
1963,000000	51,634817
1962,000000	51,610577
1961,000000	51,604361
1960,000000	51,594587
1959,000000	51,579210
1958,000000	51,576484
1957,000000	51,567737
1956,000000	51,534387
1955,000000	51,519386
1954,000000	51,562990
1953,000000	51,620704
1952,000000	51,631631
1951,000000	51,614458
1950,000000	51,605050
1949,000000	51,567722
1948,000000	51,466996
1947,000000	51,333412
1946,000000	51,144074
1945,000000	50,774832
1944,000000	50,256509
1943,000000	49,945498
1942,000000	50,176875
1941,000000	50,804907
1940,000000	51,344671
1939,000000	51,545001
1938,000000	51,560979
1937,000000	51,580374
1936,000000	51,583383
1935,000000	51,526164
1934,000000	51,485830
1933,000000	51,513110
1932,000000	51,540875
1931,000000	51,526732
1930,000000	51,523796
1929,000000	51,553866
1928,000000	51,554486
1927,000000	51,467690
1926,000000	51,247153
1925,000000	50,850450
1924,000000	50,403911
1923,000000	50,233247
1922,000000	50,426205
1921,000000	50,507958
1920,000000	49,992481
1919,000000	49,199873
1918,000000	49,012763
1917,000000	49,735506
1916,000000	50,717043
1915,000000	51,250904
1914,000000	51,328628
1913,000000	51,262960
1912,000000	51,093478
1911,000000	50,769595
1910,000000	50,521091
1909,000000	50,597101
1908,000000	50,864655
1907,000000	51,039071
1906,000000	51,103706
1905,000000	51,192941
1904,000000	51,268022
1903,000000	51,231140
1902,000000	51,176144
1901,000000	51,228421
1900,000000	51,290257
1899,000000	51,200745
1898,000000	50,992018
1897,000000	50,783638
1896,000000	50,616877
1895,000000	50,557022
1894,000000	50,687620
1893,000000	50,808429
1892,000000	50,504175
1891,000000	49,788435
1890,000000	49,321865
1889,000000	49,615092
1888,000000	50,340763
1887,000000	50,826090
1886,000000	50,925295
1885,000000	50,960079
1884,000000	51,059844
1883,000000	51,088325
1882,000000	51,048838
1881,000000	51,081804
1880,000000	51,143263
1879,000000	51,098171
1878,000000	51,025327
1877,000000	51,074410
1876,000000	51,157584
1875,000000	51,120145
1874,000000	51,009707
1873,000000	50,783824
1872,000000	50,049678
1871,000000	48,631784
1870,000000	47,217231
1869,000000	46,808844
1868,000000	47,592121
1867,000000	48,838829
1866,000000	49,862674
1865,000000	50,533746
1864,000000	50,902952
1863,000000	50,951796
1862,000000	50,818303
1861,000000	50,775942
1860,000000	50,853327
1859,000000	50,858472
1858,000000	50,797688
1857,000000	50,865473
1856,000000	51,018466
1855,000000	51,015984
1854,000000	50,889044
1853,000000	50,894254
1852,000000	50,980217
1851,000000	50,826649
1850,000000	50,439239
1849,000000	50,115427
1848,000000	49,698432
1847,000000	48,548420
1846,000000	46,637146
1845,000000	45,116723
1844,000000	45,250343
1843,000000	47,002621
1842,000000	49,099201
1841,000000	50,355721
1840,000000	50,596420
1839,000000	50,384817
1838,000000	50,235182
1837,000000	50,251038
1836,000000	50,336674
1835,000000	50,431734
1834,000000	50,377407
1833,000000	49,768020
1832,000000	48,394811
1831,000000	46,895973
1830,000000	46,404174
1829,000000	47,203297
1828,000000	48,196923
1827,000000	48,265564
1826,000000	47,707919
1825,000000	47,703759
1824,000000	48,623689
1823,000000	49,688993
1822,000000	50,219526
1821,000000	50,340431
1820,000000	50,363306
1819,000000	50,257189
1818,000000	50,035700
1817,000000	49,997080
1816,000000	50,225765
1815,000000	50,328082
1814,000000	49,980000
1813,000000	49,370634
1812,000000	48,873541
1811,000000	48,654465
1810,000000	48,753694
1809,000000	49,167003
1808,000000	49,668797
1807,000000	49,915597
1806,000000	49,835469
1805,000000	49,578970
1804,000000	49,087827
1803,000000	48,212469
1802,000000	47,269186
1801,000000	46,902936
1800,000000	47,269681
1799,000000	47,888944
1798,000000	48,376954
1797,000000	48,653563
1796,000000	48,376124
1795,000000	47,013129
1794,000000	44,894733
1793,000000	43,416512
1792,000000	43,695887
1791,000000	45,434516
1790,000000	47,459632
1789,000000	48,857334
1788,000000	49,264242
1787,000000	48,754220
1786,000000	47,943663
1785,000000	47,655897
1784,000000	47,988888
1783,000000	48,194983
1782,000000	47,845023
1781,000000	47,507737
1780,000000	47,780440
1779,000000	48,337450
1778,000000	48,519045
1777,000000	48,181937
1776,000000	47,290030
1775,000000	45,442383
1774,000000	42,800829
1773,000000	40,851104
1772,000000	41,038093
1771,000000	42,847621
1770,000000	44,428564
1769,000000	45,000627
1768,000000	45,520407
1767,000000	46,809466
1766,000000	48,141423
1765,000000	48,234282
1764,000000	46,921662
1763,000000	45,339255
1762,000000	44,755001
1761,000000	45,455392
1760,000000	46,557315
1759,000000	46,866112
1758,000000	46,211031
1757,000000	45,733502
1756,000000	46,340341
1755,000000	47,219562
1754,000000	46,695368
1753,000000	44,502097
1752,000000	42,248684
1751,000000	41,423862
1750,000000	41,927498
1749,000000	42,872924
1748,000000	43,879573
1747,000000	44,900464
1746,000000	45,573482
1745,000000	45,606566
1744,000000	45,307763
1743,000000	44,989102
1742,000000	44,339961
1741,000000	43,253565
1740,000000	42,708278
1739,000000	43,587871
1738,000000	44,711881
1737,000000	43,614145
1736,000000	39,783789
1735,000000	35,995231
1734,000000	35,448632
1733,000000	38,257218
1732,000000	41,804475
1731,000000	43,999479
1730,000000	45,007425
1729,000000	45,874321
1728,000000	46,775986
1727,000000	47,214569
1726,000000	47,076065
1725,000000	46,760809
1724,000000	46,615729
1723,000000	46,605715
1722,000000	46,273066
1721,000000	44,785780
1720,000000	41,682844
1719,000000	37,959095
1718,000000	35,728132
1717,000000	36,185119
1716,000000	38,419382
1715,000000	40,785935
1714,000000	42,765948
1713,000000	44,617325
1712,000000	46,014768
1711,000000	46,320860
1710,000000	45,799087
1709,000000	45,181236
1708,000000	44,328735
1707,000000	42,811486
1706,000000	41,523706
1705,000000	41,733777
1704,000000	42,370575
1703,000000	40,593534
1702,000000	36,026972
1701,000000	32,313624
1700,000000	32,651235
1699,000000	35,504379
1698,000000	36,944093
1697,000000	36,100795
1696,000000	35,876858
1695,000000	38,432748
1694,000000	42,410024
1693,000000	45,118186
1692,000000	45,636068
1691,000000	45,007490
1690,000000	44,451566
1689,000000	44,183379
1688,000000	43,273095
1687,000000	40,501365
1686,000000	36,142340
1685,000000	32,767108
1684,000000	33,065297
1683,000000	36,758332
1682,000000	40,843979
1681,000000	43,153153
1680,000000	44,082997
1679,000000	44,481133
1678,000000	43,766889
1677,000000	41,478078
1676,000000	39,227661
1675,000000	39,142698
1674,000000	40,929223
1673,000000	42,108785
1672,000000	41,199153
1671,000000	39,299814
1670,000000	38,422032
1669,000000	39,399699
1668,000000	41,631986
1667,000000	43,860170
1666,000000	44,809832
1665,000000	43,931816
1664,000000	42,133755
1663,000000	41,216039
1662,000000	42,053263
1661,000000	43,750516
1660,000000	44,919634
1659,000000	45,191075
1658,000000	44,792632
1657,000000	43,091721
1656,000000	38,919231
1655,000000	32,779733
1654,000000	27,852239
1653,000000	27,569464
1652,000000	32,054552
1651,000000	37,676141
1650,000000	40,381387
1649,000000	39,253313
1648,000000	36,617999
1647,000000	35,341180
1646,000000	36,530650
1645,000000	39,381840
1644,000000	42,283005
1643,000000	44,009035
1642,000000	44,376607
1641,000000	44,045946
1640,000000	43,423201
1639,000000	41,931928
1638,000000	38,978828
1637,000000	35,537368
1636,000000	33,893233
1635,000000	35,389792
1634,000000	38,950944
1633,000000	42,259028
1632,000000	43,865640
1631,000000	43,835432
1630,000000	42,957192
1629,000000	42,032738
1628,000000	41,594856
1627,000000	41,572393
1626,000000	41,263383
1625,000000	40,223594
1624,000000	39,140171
1623,000000	39,248579
1622,000000	40,757167
1621,000000	42,256669
1620,000000	41,992756
1619,000000	39,629353
1618,000000	36,677696
1617,000000	35,290939
1616,000000	36,465570
1615,000000	39,235350
1614,000000	41,633068
1613,000000	42,487990
1612,000000	42,176170
1611,000000	41,695937
1610,000000	41,461838
1609,000000	41,322727
1608,000000	41,255697
1607,000000	41,430943
1606,000000	41,734066
1605,000000	41,819408
1604,000000	41,660397
1603,000000	41,593959
1602,000000	41,771213
1601,000000	41,971943
1600,000000	42,031889
1599,000000	42,049238
1598,000000	42,072395
1597,000000	41,964142
1596,000000	41,726757
1595,000000	41,620258
1594,000000	41,778535
1593,000000	41,989025
1592,000000	42,035897
1591,000000	42,011178
1590,000000	42,089299
1589,000000	42,218412
1588,000000	42,251066
1587,000000	42,215922
1586,000000	42,234011
1585,000000	42,274758
1584,000000	42,216181
1583,000000	42,100405
1582,000000	42,110252
1581,000000	42,158419
1580,000000	41,633848
1579,000000	39,817547
1578,000000	36,871569
1577,000000	34,326724
1576,000000	34,085525
1575,000000	36,505400
1574,000000	39,653641
1573,000000	40,967174
1572,000000	39,711306
1571,000000	37,499685
1570,000000	36,439647
1569,000000	37,174826
1568,000000	38,733341
1567,000000	39,844651
1566,000000	40,088771
1565,000000	39,928913
1564,000000	39,708303
1563,000000	38,654071
1562,000000	35,381660
1561,000000	29,955618
1560,000000	25,058961
1559,000000	23,954591
1558,000000	27,029602
1557,000000	31,365082
1556,000000	34,129006
1555,000000	35,340338
1554,000000	36,582163
1553,000000	38,187753
1552,000000	39,127582
1551,000000	39,139458
1550,000000	39,219740
1549,000000	39,871515
1548,000000	40,198856
1547,000000	39,295073
1546,000000	37,513330
1545,000000	35,735253
1544,000000	34,078808
1543,000000	32,018139
1542,000000	29,495083
1541,000000	27,461334
1540,000000	27,383327
1539,000000	30,089283
1538,000000	34,624192
1537,000000	38,365287
1536,000000	39,132602
1535,000000	37,467870
1534,000000	36,066915
1533,000000	36,755695
1532,000000	38,756709
1531,000000	40,221685
1530,000000	40,374921
1529,000000	39,592018
1528,000000	38,360139
1527,000000	37,146931
1526,000000	36,507483
1525,000000	36,281245
1524,000000	35,326504
1523,000000	33,152997
1522,000000	31,278221
1521,000000	31,590041
1520,000000	33,702175
1519,000000	35,372558
1518,000000	35,572540
1517,000000	35,584093
1516,000000	36,684412
1515,000000	38,231503
1514,000000	38,872740
1513,000000	38,555966
1512,000000	38,124433
1511,000000	37,550438
1510,000000	35,770571
1509,000000	32,379082
1508,000000	28,740073
1507,000000	27,112329
1506,000000	28,786065
1505,000000	32,969363
1504,000000	37,328421
1503,000000	39,767887
1502,000000	39,876353
1501,000000	38,641891
1500,000000	37,011448
1499,000000	35,211981
1498,000000	33,477094
1497,000000	32,615545
1496,000000	33,311834
1495,000000	35,102361
1494,000000	36,579519
1493,000000	36,636836
1492,000000	35,392925
1491,000000	33,972366
1490,000000	33,507564
1489,000000	34,260241
1488,000000	35,659960
1487,000000	37,107817
1486,000000	38,487449
1485,000000	39,740236
1484,000000	40,440872
1483,000000	40,344552
1482,000000	40,006250
1481,000000	40,127831
1480,000000	40,440214
1479,000000	40,061604
1478,000000	38,867753
1477,000000	37,580223
1476,000000	36,452461
1475,000000	34,959079
1474,000000	33,182280
1473,000000	32,407185
1472,000000	33,661038
1471,000000	36,315891
1470,000000	38,790551
1469,000000	40,029012
1468,000000	39,824431
1467,000000	38,475455
1466,000000	36,856788
1465,000000	36,237152
1464,000000	37,137718
1463,000000	38,636318
1462,000000	39,260473
1461,000000	38,253797
1460,000000	35,656514
1459,000000	32,061704
1458,000000	28,914117
1457,000000	28,169511
1456,000000	30,466002
1455,000000	34,089521
1454,000000	36,679539
1453,000000	37,604670
1452,000000	37,799351
1451,000000	37,820054
1450,000000	37,409083
1449,000000	36,712314
1448,000000	36,582679
1447,000000	37,375435
1446,000000	38,439772
1445,000000	39,080530
1444,000000	39,298289
1443,000000	39,400147
1442,000000	39,474516
1441,000000	39,352226
1440,000000	38,601002
1439,000000	36,769330
1438,000000	34,294613
1437,000000	32,841048
1436,000000	33,744488
1435,000000	36,252451
1434,000000	38,220228
1433,000000	38,567006
1432,000000	38,032552
1431,000000	37,634485
1430,000000	37,578063
1429,000000	37,802278
1428,000000	38,360479
1427,000000	38,852843
1426,000000	38,607428
1425,000000	37,827848
1424,000000	37,503439
1423,000000	37,672681
1422,000000	37,017382
1421,000000	34,910415
1420,000000	32,798537
1419,000000	32,550779
1418,000000	34,168020
1417,000000	36,167869
1416,000000	37,525256
1415,000000	38,266834
1414,000000	38,581446
1413,000000	38,476748
1412,000000	38,200224
1411,000000	38,131155
1410,000000	38,227664
1409,000000	38,124568
1408,000000	37,696783
1407,000000	37,094072
1406,000000	36,477043
1405,000000	36,103157
1404,000000	36,305509
1403,000000	36,889394
1402,000000	36,996337
1401,000000	36,163616
1400,000000	35,131975
1399,000000	34,863271
1398,000000	35,167747
1397,000000	35,116026
1396,000000	34,570641
1395,000000	34,408713
1394,000000	35,198290
1393,000000	36,491883
1392,000000	37,488846
1391,000000	37,757425
1390,000000	37,229340
1389,000000	36,162725
1388,000000	35,275450
1387,000000	35,301300
1386,000000	36,166773
1385,000000	37,061765
1384,000000	37,446661
1383,000000	37,510997
1382,000000	37,573562
1381,000000	37,581628
1380,000000	37,442937
1379,000000	37,314401
1378,000000	37,246341
1377,000000	36,949463
1376,000000	36,281755
1375,000000	35,663015
1374,000000	35,640990
1373,000000	36,220109
1372,000000	36,885576
1371,000000	37,201707
1370,000000	37,163335
1369,000000	37,050741
1368,000000	37,094721
1367,000000	37,223800
1366,000000	37,094418
1365,000000	36,474397
1364,000000	35,618760
1363,000000	35,116061
1362,000000	35,291472
1361,000000	35,921549
1360,000000	36,567413
1359,000000	36,987072
1358,000000	37,166260
1357,000000	37,157934
1356,000000	37,055245
1355,000000	36,994056
1354,000000	37,036477
1353,000000	37,102848
1352,000000	37,097002
1351,000000	37,030571
1350,000000	36,973436
1349,000000	36,953116
1348,000000	36,953910
1347,000000	36,960624
1346,000000	36,962108
1345,000000	36,940078
1344,000000	36,852345
1343,000000	36,610097
1342,000000	36,142455
1341,000000	35,554527
1340,000000	35,146278
1339,000000	35,152468
1338,000000	35,496842
1337,000000	35,915080
1336,000000	36,248646
1335,000000	36,497757
1334,000000	36,658539
1333,000000	36,690081
1332,000000	36,632165
1331,000000	36,589544
1330,000000	36,586639
1329,000000	36,561779
1328,000000	36,505833
1327,000000	36,473135
1326,000000	36,463097
1325,000000	36,417475
1324,000000	36,333162
1323,000000	36,250763
1322,000000	36,142261
1321,000000	35,944462
1320,000000	35,708598
1319,000000	35,579549
1318,000000	35,602758
1317,000000	35,670735
1316,000000	35,677036
1315,000000	35,625307
1314,000000	35,567927
1313,000000	35,537505
1312,000000	35,553004
1311,000000	35,606154
1310,000000	35,634126
1309,000000	35,584792
1308,000000	35,499833
1307,000000	35,456892
1306,000000	35,449354
1305,000000	35,412465
1304,000000	35,344202
1303,000000	35,297353
1302,000000	35,273067
1301,000000	35,222294
1300,000000	35,144445
1299,000000	35,083518
1298,000000	35,039453
1297,000000	34,976135
1296,000000	34,905414
1295,000000	34,868013
1294,000000	34,845317
1293,000000	34,782718
1292,000000	34,685294
1291,000000	34,600693
1290,000000	34,526215
1289,000000	34,429541
1288,000000	34,337583
1287,000000	34,305502
1286,000000	34,310617
1285,000000	34,278958
1284,000000	34,201733
1283,000000	34,131338
1282,000000	34,075826
1281,000000	33,996576
1280,000000	33,899277
1279,000000	33,827598
1278,000000	33,774650
1277,000000	33,691912
1276,000000	33,578176
1275,000000	33,468614
1274,000000	33,351979
1273,000000	33,189922
1272,000000	33,008061
1271,000000	32,870231
1270,000000	32,771467
1269,000000	32,647677
1268,000000	32,483730
1267,000000	32,322965
1266,000000	32,175658
1265,000000	32,010150
1264,000000	31,829412
1263,000000	31,674156
1262,000000	31,553419
1261,000000	31,452973
1260,000000	31,398370
1259,000000	31,424727
1258,000000	31,495435
1257,000000	31,535968
1256,000000	31,537199
1255,000000	31,544001
1254,000000	31,556558
1253,000000	31,531518
1252,000000	31,471069
1251,000000	31,419695
1250,000000	31,379120
1249,000000	31,310692
1248,000000	31,217127
1247,000000	31,138013
1246,000000	31,071819
1245,000000	30,983244
1244,000000	30,881871
1243,000000	30,810318
1242,000000	30,760953
1241,000000	30,686367
1240,000000	30,586131
1239,000000	30,503266
1238,000000	30,439251
1237,000000	30,355036
1236,000000	30,250846
1235,000000	30,165583
1234,000000	30,098608
1233,000000	30,011433
1232,000000	29,904470
1231,000000	29,815815
1230,000000	29,745108
1229,000000	29,653673
1228,000000	29,539126
1227,000000	29,436904
1226,000000	29,350753
1225,000000	29,251756
1224,000000	29,143104
1223,000000	29,054259
1222,000000	28,975655
1221,000000	28,869256
1220,000000	28,740203
1219,000000	28,628363
1218,000000	28,534660
1217,000000	28,424266
1216,000000	28,296690
1215,000000	28,183611
1214,000000	28,083548
1213,000000	27,968575
1212,000000	27,849026
1211,000000	27,761667
1210,000000	27,699028
1209,000000	27,619900
1208,000000	27,523415
1207,000000	27,444711
1206,000000	27,382724
1205,000000	27,303023
1204,000000	27,207101
1203,000000	27,129112
1202,000000	27,067403
1201,000000	26,987580
1200,000000	26,890853
1199,000000	26,811611
1198,000000	26,749998
1197,000000	26,672711
1196,000000	26,578507
1195,000000	26,497388
1194,000000	26,427771
1193,000000	26,339185
1192,000000	26,234283
1191,000000	26,144258
1190,000000	26,065891
1189,000000	25,967106
1188,000000	25,851920
1187,000000	25,755413
1186,000000	25,676073
1185,000000	25,575801
1184,000000	25,445683
1183,000000	25,312366
1182,000000	25,183359
1181,000000	25,047353
1180,000000	24,923576
1179,000000	24,846505
1178,000000	24,802194
1177,000000	24,741427
1176,000000	24,654584
1175,000000	24,574123
1174,000000	24,507036
1173,000000	24,426582
1172,000000	24,330178
1171,000000	24,243801
1170,000000	24,167425
1169,000000	24,074361
1168,000000	23,965876
1167,000000	23,870157
1166,000000	23,787460
1165,000000	23,691719
1164,000000	23,584874
1163,000000	23,494115
1162,000000	23,417362
1161,000000	23,326875
1160,000000	23,224906
1159,000000	23,140277
1158,000000	23,072098
1157,000000	22,991849
1156,000000	22,899498
1155,000000	22,821980
1154,000000	22,758405
1153,000000	22,681584
1152,000000	22,592428
1151,000000	22,518185
1150,000000	22,457644
1149,000000	22,382615
1148,000000	22,292658
1147,000000	22,215335
1146,000000	22,152366
1145,000000	22,078784
1144,000000	21,994622
1143,000000	21,925619
1142,000000	21,872293
1141,000000	21,809508
1140,000000	21,735552
1139,000000	21,671623
1138,000000	21,614276
1137,000000	21,538739
1136,000000	21,448307
1135,000000	21,370016
1134,000000	21,303119
1133,000000	21,220962
1132,000000	21,123035
1131,000000	21,034703
1130,000000	20,957452
1129,000000	20,868314
1128,000000	20,767919
1127,000000	20,679870
1126,000000	20,603247
1125,000000	20,514164
1124,000000	20,413270
1123,000000	20,324462
1122,000000	20,247234
1121,000000	20,158281
1120,000000	20,058213
1119,000000	19,970306
1118,000000	19,893725
1117,000000	19,805547
1116,000000	19,707038
1115,000000	19,621577
1114,000000	19,548016
1113,000000	19,462917
1112,000000	19,367524
1111,000000	19,285755
1110,000000	19,217345
1109,000000	19,138822
1108,000000	19,050913
1107,000000	18,977746
1106,000000	18,920541
1105,000000	18,856561
1104,000000	18,784284
1103,000000	18,724118
1102,000000	18,674874
1101,000000	18,614041
1100,000000	18,541374
1099,000000	18,478678
1098,000000	18,426280
1097,000000	18,363346
1096,000000	18,290304
1095,000000	18,228760
1094,000000	18,178821
1093,000000	18,119799
1092,000000	18,051806
1091,000000	17,995467
1090,000000	17,950344
1089,000000	17,895732
1088,000000	17,831787
1087,000000	17,778561
1086,000000	17,735273
1085,000000	17,681152
1084,000000	17,616321
1083,000000	17,560957
1082,000000	17,516108
1081,000000	17,464560
1080,000000	17,409699
1079,000000	17,371839
1078,000000	17,348784
1077,000000	17,319340
1076,000000	17,284646
1075,000000	17,265701
1074,000000	17,261330
1073,000000	17,249629
1072,000000	17,229161
1071,000000	17,219270
1070,000000	17,220041
1069,000000	17,212438
1068,000000	17,196731
1067,000000	17,192398
1066,000000	17,199479
1065,000000	17,199477
1064,000000	17,192630
1063,000000	17,196750
1062,000000	17,209797
1061,000000	17,211880
1060,000000	17,202993
1059,000000	17,200118
1058,000000	17,197819
1057,000000	17,168304
1056,000000	17,102607
1055,000000	17,014720
1054,000000	16,910756
1053,000000	16,791223
1052,000000	16,684036
1051,000000	16,633821
1050,000000	16,657248
1049,000000	16,738374
1048,000000	16,863501
1047,000000	17,024793
1046,000000	17,192280
1045,000000	17,326876
1044,000000	17,422456
1043,000000	17,502352
1042,000000	17,574466
1041,000000	17,626856
1040,000000	17,663197
1039,000000	17,704256
1038,000000	17,752192
1037,000000	17,789587
1036,000000	17,815897
1035,000000	17,848924
1034,000000	17,890045
1033,000000	17,922359
1032,000000	17,944890
1031,000000	17,973767
1030,000000	18,009662
1029,000000	18,036702
1028,000000	18,055283
1027,000000	18,081698
1026,000000	18,116021
1025,000000	18,142435
1024,000000	18,161934
1023,000000	18,191540
1022,000000	18,231612
1021,000000	18,266683
1020,000000	18,297971
1019,000000	18,342945
1018,000000	18,401585
1017,000000	18,457138
1016,000000	18,508718
1015,000000	18,571967
1014,000000	18,646430
1013,000000	18,715246
1012,000000	18,777042
1011,000000	18,846429
1010,000000	18,922338
1009,000000	18,987688
1008,000000	19,041393
1007,000000	19,098816
1006,000000	19,160499
1005,000000	19,210626
1004,000000	19,247951
1003,000000	19,287054
1002,000000	19,328770
1001,000000	19,358714
1000,000000	19,376813
999,000000	19,397511
998,000000	19,421043
997,000000	19,433111
996,000000	19,433681
995,000000	19,437525
994,000000	19,444981
993,000000	19,442142
992,000000	19,428947
991,000000	19,419472
990,000000	19,413562
989,000000	19,397415
988,000000	19,371664
987,000000	19,351189
986,000000	19,336265
985,000000	19,312692
984,000000	19,279899
983,000000	19,251320
982,000000	19,227263
981,000000	19,194831
980,000000	19,155229
979,000000	19,122200
978,000000	19,094569
977,000000	19,057113
976,000000	19,009669
975,000000	18,967069
974,000000	18,930907
973,000000	18,888147
972,000000	18,838187
971,000000	18,793698
970,000000	18,754436
969,000000	18,707393
968,000000	18,652907
967,000000	18,604613
966,000000	18,562338
965,000000	18,512455
964,000000	18,454334
963,000000	18,401186
962,000000	18,353628
961,000000	18,299170
960,000000	18,237709
959,000000	18,181996
958,000000	18,132395
957,000000	18,076741
956,000000	18,015558
955,000000	17,961547
954,000000	17,914544
953,000000	17,861563
952,000000	17,802509
951,000000	17,749854
950,000000	17,703791
949,000000	17,652043
948,000000	17,594950
947,000000	17,545025
946,000000	17,502013
945,000000	17,453096
944,000000	17,397884
943,000000	17,348690
942,000000	17,305526
941,000000	17,256089
940,000000	17,199905
939,000000	17,148898
938,000000	17,103093
937,000000	17,050914
936,000000	16,992914
935,000000	16,941638
934,000000	16,897156
933,000000	16,846953
932,000000	16,790180
931,000000	16,738288
930,000000	16,691771
929,000000	16,639459
928,000000	16,581637
927,000000	16,529851
926,000000	16,484238
925,000000	16,433287
924,000000	16,376871
923,000000	16,325893
922,000000	16,279760
921,000000	16,226645
920,000000	16,166421
919,000000	16,110543
918,000000	16,058986
917,000000	16,000170
916,000000	15,933304
915,000000	15,868931
914,000000	15,806943
913,000000	15,737172
912,000000	15,661407
911,000000	15,593116
910,000000	15,534178
909,000000	15,474108
908,000000	15,412012
907,000000	15,357632
906,000000	15,310195
905,000000	15,258156
904,000000	15,200747
903,000000	15,148453
902,000000	15,101898
901,000000	15,050663
900,000000	14,994404
899,000000	14,943785
898,000000	14,900346
897,000000	14,854748
896,000000	14,805822
895,000000	14,761307
894,000000	14,719708
893,000000	14,671011
892,000000	14,615422
891,000000	14,562437
890,000000	14,511190
889,000000	14,451512
888,000000	14,383282
887,000000	14,315880
886,000000	14,248737
885,000000	14,172258
884,000000	14,087525
883,000000	14,005797
882,000000	13,928530
881,000000	13,847557
880,000000	13,765261
879,000000	13,695191
878,000000	13,642112
877,000000	13,599479
876,000000	13,566563
875,000000	13,549855
874,000000	13,546902
873,000000	13,546686
872,000000	13,547616
871,000000	13,556983
870,000000	13,573279
869,000000	13,585320
868,000000	13,589561
867,000000	13,591788
866,000000	13,591809
865,000000	13,583103
864,000000	13,567179
863,000000	13,552423
862,000000	13,538385
861,000000	13,517437
860,000000	13,490479
859,000000	13,465713
858,000000	13,442573
857,000000	13,413076
856,000000	13,378163
855,000000	13,346736
854,000000	13,319348
853,000000	13,288614
852,000000	13,255179
851,000000	13,227389
850,000000	13,205794
849,000000	13,182999
848,000000	13,158572
847,000000	13,138708
846,000000	13,121826
845,000000	13,099419
844,000000	13,071191
843,000000	13,044772
842,000000	13,020864
841,000000	12,992768
840,000000	12,959967
839,000000	12,927968
838,000000	12,895082
837,000000	12,853001
836,000000	12,800214
835,000000	12,741741
834,000000	12,675468
833,000000	12,592973
832,000000	12,493387
831,000000	12,384652
830,000000	12,271016
829,000000	12,151564
828,000000	12,031499
827,000000	11,923257
826,000000	11,836915
825,000000	11,778746
824,000000	11,757872
823,000000	11,780308
822,000000	11,837096
821,000000	11,908183
820,000000	11,978236
819,000000	12,040833
818,000000	12,090005
817,000000	12,120340
816,000000	12,134248
815,000000	12,139021
814,000000	12,136578
813,000000	12,124895
812,000000	12,106775
811,000000	12,087634
810,000000	12,066787
809,000000	12,039899
808,000000	12,008560
807,000000	11,978312
806,000000	11,949364
805,000000	11,918247
804,000000	11,886475
803,000000	11,858908
802,000000	11,835385
801,000000	11,812456
800,000000	11,791405
799,000000	11,776666
798,000000	11,768055
797,000000	11,762051
796,000000	11,759027
795,000000	11,761909
794,000000	11,769837
793,000000	11,779555
792,000000	11,791066
791,000000	11,805919
790,000000	11,822075
789,000000	11,836227
788,000000	11,848631
787,000000	11,860643
786,000000	11,870376
785,000000	11,875704
784,000000	11,878487
783,000000	11,881271
782,000000	11,882941
781,000000	11,881517
780,000000	11,877887
779,000000	11,873098
778,000000	11,865841
777,000000	11,855992
776,000000	11,846509
775,000000	11,838663
774,000000	11,829325
773,000000	11,815850
772,000000	11,799728
771,000000	11,783036
770,000000	11,765431
769,000000	11,746610
768,000000	11,727662
767,000000	11,708574
766,000000	11,688123
765,000000	11,666818
764,000000	11,645917
763,000000	11,624099
762,000000	11,599590
761,000000	11,574307
760,000000	11,550878
759,000000	11,527480
758,000000	11,501060
757,000000	11,473308
756,000000	11,447467
755,000000	11,422210
754,000000	11,394877
753,000000	11,367189
752,000000	11,341311
751,000000	11,314418
750,000000	11,283983
749,000000	11,253282
748,000000	11,224827
747,000000	11,194417
746,000000	11,159112
745,000000	11,123677
744,000000	11,091383
743,000000	11,057131
742,000000	11,018524
741,000000	10,983535
740,000000	10,956972
739,000000	10,930298
738,000000	10,895934
737,000000	10,860071
736,000000	10,829011
735,000000	10,796078
734,000000	10,755262
733,000000	10,714339
732,000000	10,679819
731,000000	10,643942
730,000000	10,601378
729,000000	10,562095
728,000000	10,531655
727,000000	10,498335
726,000000	10,457191
725,000000	10,420899
724,000000	10,383892
723,000000	10,306239
722,000000	10,172566
721,000000	10,042140
720,000000	9,994799
719,000000	10,035586
718,000000	10,094708
717,000000	10,114854
716,000000	10,096161
715,000000	10,061101
714,000000	10,019206
713,000000	9,974910
712,000000	9,934271
711,000000	9,893831
710,000000	9,844784
709,000000	9,790453
708,000000	9,739371
707,000000	9,687046
706,000000	9,625931
705,000000	9,564428
704,000000	9,512367
703,000000	9,459393
702,000000	9,392192
701,000000	9,318464
700,000000	9,248977
699,000000	9,173496
698,000000	9,082564
697,000000	8,991233
696,000000	8,912115
695,000000	8,828072
694,000000	8,723662
693,000000	8,614390
692,000000	8,511728
691,000000	8,393217
690,000000	8,248646
689,000000	8,118388
688,000000	8,038369
687,000000	7,985618
686,000000	7,926795
685,000000	7,877668
684,000000	7,856127
683,000000	7,828098
682,000000	7,765086
681,000000	7,706192
680,000000	7,688179
679,000000	7,673015
678,000000	7,623981
677,000000	7,586479
676,000000	7,600258
675,000000	7,613385
674,000000	7,587909
673,000000	7,562738
672,000000	7,447113
671,000000	6,911371
670,000000	5,815928
669,000000	4,692579
668,000000	4,417192
667,000000	5,250537
666,000000	6,492772
665,000000	7,273835
664,000000	7,404583
663,000000	7,277792
662,000000	7,190264
661,000000	7,109702
660,000000	6,979951
659,000000	6,877433
658,000000	6,839654
657,000000	6,788828
656,000000	6,692364
655,000000	6,619024
654,000000	6,597680
653,000000	6,563324
652,000000	6,483683
651,000000	6,409686
650,000000	6,370571
649,000000	6,332604
648,000000	6,287935
647,000000	6,277229
646,000000	6,297677
645,000000	6,289993
644,000000	6,238901
643,000000	6,196336
642,000000	6,181413
641,000000	6,151694
640,000000	6,091512
639,000000	6,041802
638,000000	6,016035
637,000000	5,973073
636,000000	5,899171
635,000000	5,836799
634,000000	5,805135
633,000000	5,766091
632,000000	5,699135
631,000000	5,635771
630,000000	5,593424
629,000000	5,540835
628,000000	5,461469
627,000000	5,386404
626,000000	5,335940
625,000000	5,285728
624,000000	5,219996
623,000000	5,161721
622,000000	5,119981
621,000000	5,060996
620,000000	4,962509
619,000000	4,854253
618,000000	4,774310
617,000000	4,725511
616,000000	4,694049
615,000000	4,673127
614,000000	4,648496
613,000000	4,599133
612,000000	4,529046
611,000000	4,465005
610,000000	4,411757
609,000000	4,346974
608,000000	4,267034
607,000000	4,195095
606,000000	4,136617
605,000000	4,070195
604,000000	3,993848
603,000000	3,934046
602,000000	3,898333
601,000000	3,860668
600,000000	3,807831
599,000000	3,757065
598,000000	3,715865
597,000000	3,665901
596,000000	3,600187
595,000000	3,536409
594,000000	3,480268
593,000000	3,415987
592,000000	3,343706
591,000000	3,287116
590,000000	3,249760
589,000000	3,204750
588,000000	3,139490
587,000000	3,073915
586,000000	3,020605
585,000000	2,965295
584,000000	2,899931
583,000000	2,838477
582,000000	2,787111
581,000000	2,732532
580,000000	2,671647
579,000000	2,618136
578,000000	2,571751
577,000000	2,515477
576,000000	2,451994
575,000000	2,404711
574,000000	2,375335
573,000000	2,337168
572,000000	2,280747
571,000000	2,226917
570,000000	2,185116
569,000000	2,138604
568,000000	2,082054
567,000000	2,035119
566,000000	2,003618
565,000000	1,966459
564,000000	1,914360
563,000000	1,866481
562,000000	1,832627
561,000000	1,795835
560,000000	1,746731
559,000000	1,700957
558,000000	1,666746
557,000000	1,628873
556,000000	1,580516
555,000000	1,537711
554,000000	1,507654
553,000000	1,473489
552,000000	1,426890
551,000000	1,383416
550,000000	1,351803
549,000000	1,317712
548,000000	1,273530
547,000000	1,233644
546,000000	1,205852
545,000000	1,176573
544,000000	1,138480
543,000000	1,104401
542,000000	1,079776
541,000000	1,050578
540,000000	1,010949
539,000000	0,975583
538,000000	0,950710
537,000000	0,922348
536,000000	0,884741
535,000000	0,852684
534,000000	0,832029
533,000000	0,807347
532,000000	0,771691
531,000000	0,739948
530,000000	0,719246
529,000000	0,694135
528,000000	0,656429
527,000000	0,621394
526,000000	0,600387
525,000000	0,582402
524,000000	0,558061
523,000000	0,535582
522,000000	0,519629
521,000000	0,499008
520,000000	0,469382
519,000000	0,444306
518,000000	0,430677
517,000000	0,417135
516,000000	0,397399
515,000000	0,381848
514,000000	0,374191
513,000000	0,361930
512,000000	0,340566
511,000000	0,323517
510,000000	0,315737
509,000000	0,303676
508,000000	0,281913
507,000000	0,264722
506,000000	0,258845
505,000000	0,250573
504,000000	0,232224
503,000000	0,216221
502,000000	0,210653
501,000000	0,204495
500,000000	0,190703
499,000000	0,179514
498,000000	0,176525
497,000000	0,170519
496,000000	0,155842
495,000000	0,143951
494,000000	0,140868
493,000000	0,135777
492,000000	0,123124
491,000000	0,113808
490,000000	0,112609
489,000000	0,108018
488,000000	0,095079
487,000000	0,086092
486,000000	0,086625
485,000000	0,084784
484,000000	0,074261
483,000000	0,066600
482,000000	0,067784
481,000000	0,066535
480,000000	0,056778
479,000000	0,049680
478,000000	0,051328
477,000000	0,050700
476,000000	0,041858
475,000000	0,035501
474,000000	0,037366
473,000000	0,037026
472,000000	0,029275
471,000000	0,025049
470,000000	0,029240
469,000000	0,030731
468,000000	0,023603
467,000000	0,018753
466,000000	0,021961
465,000000	0,023116
464,000000	0,016467
463,000000	0,013061
462,000000	0,018219
461,000000	0,020682
460,000000	0,013939
459,000000	0,009607
458,000000	0,013762
457,000000	0,016089
456,000000	0,010565
455,000000	0,007159
454,000000	0,011171
453,000000	0,013769
452,000000	0,009133
451,000000	0,006457
450,000000	0,008241
449,000000	0,010562
448,000000	0,006476
447,000000	0,004156
446,000000	0,006686
445,000000	0,008670
444,000000	0,003346
443,000000	0,001720
442,000000	0,005928
441,000000	0,007625
440,000000	0,002233
439,000000	0,003742
438,000000	0,001798
437,000000	0,004993
436,000000	0,001435
435,000000	0,004830
434,000000	0,003331
433,000000	0,007112
432,000000	0,003135
431,000000	0,002885
430,000000	0,002433
429,000000	0,005170
428,000000	0,002211
427,000000	0,003009
426,000000	0,003677
425,000000	0,006168
424,000000	0,000706
423,000000	0,004100
422,000000	0,001971
421,000000	0,004261
420,000000	0,004310
419,000000	0,006047
418,000000	0,003307
417,000000	0,005250
416,000000	0,002150
415,000000	0,005616
414,000000	0,000698
413,000000	0,002451
412,000000	0,004202
411,000000	0,005242
410,000000	0,002301
409,000000	0,006124
408,000000	0,001541
407,000000	0,004200
406,000000	0,001716
405,000000	0,005247
404,000000	0,001956
403,000000	0,003289
402,000000	0,002557
401,000000	0,004812
400,000000	0,001838
399,000000	0,005833
398,000000	0,000901
397,000000	0,006824
396,000000	0,001070
395,000000	0,002632
394,000000	0,002589
393,000000	0,005134
392,000000	0,003615
391,000000	0,005622
390,000000	0,002404
389,000000	0,006151
388,000000	0,002737
387,000000	0,003209
386,000000	0,003111
385,000000	0,006910
384,000000	0,002199
383,000000	0,002507
382,000000	0,002790
381,000000	0,006715
380,000000	0,002041
379,000000	0,004371
378,000000	0,000921
377,000000	0,005684
376,000000	0,002321
375,000000	0,002610
374,000000	0,004049
373,000000	0,007439
372,000000	0,002501
371,000000	0,004140
370,000000	0,001651
369,000000	0,005527
368,000000	0,001025
367,000000	0,004778
366,000000	0,001762
365,000000	0,004870
364,000000	0,002836
363,000000	0,004181
362,000000	0,001516
361,000000	0,006278
360,000000	0,001248
359,000000	0,005477
358,000000	0,001865
357,000000	0,007272
356,000000	0,003718
355,000000	0,004293
354,000000	0,002173
353,000000	0,003918
352,000000	0,003964
351,000000	0,005991
350,000000	0,003763
349,000000	0,008677
348,000000	0,002979
347,000000	0,006778
346,000000	0,000785
345,000000	0,002182
344,000000	0,001884
343,000000	0,004210
342,000000	0,004046
341,000000	0,008182
340,000000	0,002838
339,000000	0,004402
338,000000	0,004381
337,000000	0,007343
336,000000	0,004192
335,000000	0,006583
334,000000	0,001927
333,000000	0,002302
332,000000	0,002912
331,000000	0,006435
330,000000	0,001962
329,000000	0,006018
328,000000	0,001639
327,000000	0,003802
326,000000	0,003419
325,000000	0,007478
324,000000	0,003717
323,000000	0,004218
322,000000	0,002987
321,000000	0,008012
320,000000	0,003047
319,000000	0,003658
318,000000	0,002844
317,000000	0,006390
316,000000	0,004575
315,000000	0,008192
314,000000	0,008481
313,000000	0,009238
312,000000	0,008553
311,000000	0,004656
310,000000	0,004383
309,000000	0,008208
308,000000	0,002658
307,000000	0,004230
306,000000	0,003015
305,000000	0,005616
304,000000	0,003653
303,000000	0,006383
302,000000	0,001372
301,000000	0,007176
300,000000	0,001088
