PE IR       SUBTECH     SPECTRUM    ASCII       PEDS        4.00        
   -1
polystyrene.ASC
25/06/17
09:27:42.00
25/06/17
09:27:42.00
Praktikum
sample 2
300,000000
#HDR
-1
-1
#GR
cm-1
EGY
1.0
0.0
4000,000000
-1,000000
3701
8
54,420137
0,000712
#DATA
4000,000000	37,927853
3999,000000	37,968620
3998,000000	38,004534
3997,000000	38,041457
3996,000000	38,091241
3995,000000	38,158470
3994,000000	38,233059
3993,000000	38,301309
3992,000000	38,362884
3991,000000	38,431674
3990,000000	38,517650
3989,000000	38,612445
3988,000000	38,696042
3987,000000	38,754331
3986,000000	38,787156
3985,000000	38,803632
3984,000000	38,815515
3983,000000	38,833948
3982,000000	38,864924
3981,000000	38,902792
3980,000000	38,931127
3979,000000	38,934206
3978,000000	38,910963
3977,000000	38,878238
3976,000000	38,860004
3975,000000	38,872309
3974,000000	38,914481
3973,000000	38,972754
3972,000000	39,032983
3971,000000	39,091202
3970,000000	39,153578
3969,000000	39,226220
3968,000000	39,302600
3967,000000	39,359451
3966,000000	39,368415
3965,000000	39,319911
3964,000000	39,241350
3963,000000	39,185604
3962,000000	39,191532
3961,000000	39,253138
3960,000000	39,330324
3959,000000	39,388468
3958,000000	39,423530
3957,000000	39,449388
3956,000000	39,469070
3955,000000	39,462701
3954,000000	39,397699
3953,000000	39,249902
3952,000000	39,027658
3951,000000	38,789611
3950,000000	38,631980
3949,000000	38,629529
3948,000000	38,759834
3947,000000	38,888397
3946,000000	38,868691
3945,000000	38,684391
3944,000000	38,491562
3943,000000	38,488615
3942,000000	38,728708
3941,000000	39,079998
3940,000000	39,367903
3939,000000	39,517751
3938,000000	39,540887
3937,000000	39,427514
3936,000000	39,128158
3935,000000	38,659198
3934,000000	38,173795
3933,000000	37,887780
3932,000000	37,926108
3931,000000	38,239245
3930,000000	38,634993
3929,000000	38,882983
3928,000000	38,852095
3927,000000	38,605373
3926,000000	38,355064
3925,000000	38,286078
3924,000000	38,391182
3923,000000	38,490477
3922,000000	38,404427
3921,000000	38,098624
3920,000000	37,696444
3919,000000	37,400700
3918,000000	37,402653
3917,000000	37,780957
3916,000000	38,431667
3915,000000	39,111638
3914,000000	39,596741
3913,000000	39,829027
3912,000000	39,897913
3911,000000	39,885576
3910,000000	39,741902
3909,000000	39,301662
3908,000000	38,421929
3907,000000	37,141084
3906,000000	35,736778
3905,000000	34,599572
3904,000000	33,983330
3903,000000	33,867628
3902,000000	34,084833
3901,000000	34,561475
3900,000000	35,376231
3899,000000	36,549481
3898,000000	37,850430
3897,000000	38,858447
3896,000000	39,206181
3895,000000	38,785528
3894,000000	37,838576
3893,000000	36,920101
3892,000000	36,618269
3891,000000	37,071765
3890,000000	37,723886
3889,000000	37,782796
3888,000000	37,023281
3887,000000	36,077967
3886,000000	35,777288
3885,000000	36,271854
3884,000000	36,936899
3883,000000	37,129441
3882,000000	36,899025
3881,000000	36,871633
3880,000000	37,489377
3879,000000	38,485938
3878,000000	39,141807
3877,000000	39,018887
3876,000000	38,353163
3875,000000	37,653549
3874,000000	37,055768
3873,000000	36,279184
3872,000000	35,258019
3871,000000	34,524190
3870,000000	34,684476
3869,000000	35,624091
3868,000000	36,532585
3867,000000	36,764916
3866,000000	36,472773
3865,000000	36,302044
3864,000000	36,660409
3863,000000	37,458627
3862,000000	38,384297
3861,000000	39,178361
3860,000000	39,587084
3859,000000	39,224094
3858,000000	37,670211
3857,000000	34,846396
3856,000000	31,399789
3855,000000	28,656347
3854,000000	27,921458
3853,000000	29,575541
3852,000000	32,798440
3851,000000	36,205562
3850,000000	38,782122
3849,000000	40,237599
3848,000000	40,721416
3847,000000	40,465660
3846,000000	39,737769
3845,000000	38,863707
3844,000000	38,082527
3843,000000	37,369480
3842,000000	36,500725
3841,000000	35,349853
3840,000000	34,138894
3839,000000	33,368424
3838,000000	33,458757
3837,000000	34,381973
3836,000000	35,647476
3835,000000	36,690291
3834,000000	37,304309
3833,000000	37,707415
3832,000000	38,200760
3831,000000	38,817958
3830,000000	39,311052
3829,000000	39,470783
3828,000000	39,382642
3827,000000	39,272750
3826,000000	39,084615
3825,000000	38,372152
3824,000000	36,847086
3823,000000	35,011948
3822,000000	33,935558
3821,000000	34,192439
3820,000000	35,155762
3819,000000	35,664454
3818,000000	35,329606
3817,000000	34,947501
3816,000000	35,536350
3815,000000	37,214163
3814,000000	39,189137
3813,000000	40,586259
3812,000000	41,024876
3811,000000	40,500922
3810,000000	39,192253
3809,000000	37,583247
3808,000000	36,469844
3807,000000	36,378877
3806,000000	36,907042
3805,000000	36,978754
3804,000000	35,991207
3803,000000	34,590094
3802,000000	34,050291
3801,000000	34,919220
3800,000000	36,516474
3799,000000	37,777576
3798,000000	38,360096
3797,000000	38,722318
3796,000000	39,365173
3795,000000	40,275363
3794,000000	41,099912
3793,000000	41,595941
3792,000000	41,789422
3791,000000	41,828093
3790,000000	41,805562
3789,000000	41,713094
3788,000000	41,507946
3787,000000	41,233383
3786,000000	41,041849
3785,000000	41,044770
3784,000000	41,123577
3783,000000	40,993204
3782,000000	40,523856
3781,000000	39,964850
3780,000000	39,770764
3779,000000	40,178288
3778,000000	40,993421
3777,000000	41,792865
3776,000000	42,268877
3775,000000	42,327056
3774,000000	41,933548
3773,000000	41,074419
3772,000000	39,964525
3771,000000	39,111063
3770,000000	38,923221
3769,000000	39,282426
3768,000000	39,707650
3767,000000	39,966467
3766,000000	40,273696
3765,000000	40,805444
3764,000000	41,265577
3763,000000	41,185098
3762,000000	40,505939
3761,000000	39,667891
3760,000000	39,175766
3759,000000	39,227378
3758,000000	39,644367
3757,000000	39,931646
3756,000000	39,466533
3755,000000	37,920297
3754,000000	35,592193
3753,000000	33,265250
3752,000000	31,744663
3751,000000	31,505238
3750,000000	32,467354
3749,000000	33,816840
3748,000000	34,301633
3747,000000	33,283229
3746,000000	31,624752
3745,000000	31,106874
3744,000000	32,688400
3743,000000	35,580683
3742,000000	38,114191
3741,000000	39,174702
3740,000000	38,678846
3739,000000	37,120072
3738,000000	35,183314
3737,000000	33,625256
3736,000000	32,974259
3735,000000	33,210560
3734,000000	33,975598
3733,000000	35,080551
3732,000000	36,529488
3731,000000	38,071534
3730,000000	39,106439
3729,000000	39,251892
3728,000000	38,779850
3727,000000	38,304752
3726,000000	38,166825
3725,000000	38,279135
3724,000000	38,470033
3723,000000	38,744717
3722,000000	39,187789
3721,000000	39,785564
3720,000000	40,435289
3719,000000	41,049093
3718,000000	41,523660
3717,000000	41,609609
3716,000000	40,956451
3715,000000	39,444624
3714,000000	37,483860
3713,000000	35,873338
3712,000000	35,276964
3711,000000	35,805451
3710,000000	37,088051
3709,000000	38,621662
3708,000000	39,992938
3707,000000	40,897875
3706,000000	41,133263
3705,000000	40,702895
3704,000000	39,903144
3703,000000	39,242581
3702,000000	39,167254
3701,000000	39,739084
3700,000000	40,587589
3699,000000	41,243245
3698,000000	41,534696
3697,000000	41,590536
3696,000000	41,485182
3695,000000	41,049177
3694,000000	40,085819
3693,000000	38,626878
3692,000000	36,926409
3691,000000	35,384225
3690,000000	34,549128
3689,000000	34,949782
3688,000000	36,629679
3687,000000	38,913937
3686,000000	40,873342
3685,000000	42,005205
3684,000000	42,374855
3683,000000	42,241058
3682,000000	41,777142
3681,000000	41,040964
3680,000000	39,916786
3679,000000	38,137179
3678,000000	35,766554
3677,000000	33,670158
3676,000000	33,043901
3675,000000	34,136887
3674,000000	35,754989
3673,000000	36,420214
3672,000000	35,903018
3671,000000	35,352346
3670,000000	35,963785
3669,000000	37,832238
3668,000000	40,121126
3667,000000	41,973128
3666,000000	43,066914
3665,000000	43,531007
3664,000000	43,637682
3663,000000	43,620992
3662,000000	43,565195
3661,000000	43,330759
3660,000000	42,653822
3659,000000	41,467860
3658,000000	40,188680
3657,000000	39,516679
3656,000000	39,757813
3655,000000	40,332990
3654,000000	40,132988
3653,000000	38,540267
3652,000000	36,039757
3651,000000	33,814036
3650,000000	32,837389
3649,000000	33,374427
3648,000000	35,127196
3647,000000	37,521118
3646,000000	39,863530
3645,000000	41,573805
3644,000000	42,487499
3643,000000	42,868630
3642,000000	43,060764
3641,000000	43,197372
3640,000000	43,268461
3639,000000	43,284211
3638,000000	43,231099
3637,000000	43,015024
3636,000000	42,615591
3635,000000	42,165477
3634,000000	41,647240
3633,000000	40,629723
3632,000000	38,684326
3631,000000	36,197750
3630,000000	34,445683
3629,000000	34,572892
3628,000000	36,523496
3627,000000	39,142680
3626,000000	41,213731
3625,000000	42,225475
3624,000000	42,237319
3623,000000	41,446574
3622,000000	40,123269
3621,000000	38,781901
3620,000000	38,066245
3619,000000	38,308218
3618,000000	39,225903
3617,000000	40,139166
3616,000000	40,527556
3615,000000	40,397040
3614,000000	40,120529
3613,000000	39,964871
3612,000000	39,848376
3611,000000	39,591394
3610,000000	39,308365
3609,000000	39,393548
3608,000000	40,090438
3607,000000	41,193306
3606,000000	42,216255
3605,000000	42,789786
3604,000000	42,853044
3603,000000	42,578745
3602,000000	42,226040
3601,000000	42,005632
3600,000000	41,955459
3599,000000	41,927078
3598,000000	41,754774
3597,000000	41,453828
3596,000000	41,230004
3595,000000	41,287621
3594,000000	41,625840
3593,000000	41,972515
3592,000000	41,911326
3591,000000	41,176421
3590,000000	39,960342
3589,000000	38,903553
3588,000000	38,660177
3587,000000	39,397782
3586,000000	40,718322
3585,000000	42,026749
3584,000000	42,934061
3583,000000	43,380371
3582,000000	43,515041
3581,000000	43,531375
3580,000000	43,554922
3579,000000	43,611321
3578,000000	43,671696
3577,000000	43,724936
3576,000000	43,794725
3575,000000	43,896772
3574,000000	43,995737
3573,000000	43,977076
3572,000000	43,640322
3571,000000	42,799201
3570,000000	41,510397
3569,000000	40,215146
3568,000000	39,526155
3567,000000	39,781189
3566,000000	40,787273
3565,000000	42,011362
3564,000000	42,984571
3563,000000	43,551418
3562,000000	43,822669
3561,000000	43,991043
3560,000000	44,181212
3559,000000	44,403706
3558,000000	44,589914
3557,000000	44,653825
3556,000000	44,545465
3555,000000	44,293367
3554,000000	44,026553
3553,000000	43,916032
3552,000000	44,022642
3551,000000	44,197129
3550,000000	44,189020
3549,000000	43,893993
3548,000000	43,469644
3547,000000	43,197376
3546,000000	43,253447
3545,000000	43,614993
3544,000000	44,128398
3543,000000	44,622303
3542,000000	44,979910
3541,000000	45,157623
3540,000000	45,168580
3539,000000	45,062252
3538,000000	44,924024
3537,000000	44,860393
3536,000000	44,930570
3535,000000	45,081342
3534,000000	45,180633
3533,000000	45,132315
3532,000000	44,940219
3531,000000	44,672021
3530,000000	44,404243
3529,000000	44,207167
3528,000000	44,122138
3527,000000	44,120782
3526,000000	44,130156
3525,000000	44,130059
3524,000000	44,191088
3523,000000	44,376182
3522,000000	44,638137
3521,000000	44,859997
3520,000000	44,980750
3519,000000	45,032324
3518,000000	45,066200
3517,000000	45,092098
3516,000000	45,093142
3515,000000	45,055165
3514,000000	44,962325
3513,000000	44,797480
3512,000000	44,578893
3511,000000	44,386115
3510,000000	44,314532
3509,000000	44,383618
3508,000000	44,490940
3507,000000	44,481112
3506,000000	44,284199
3505,000000	43,993957
3504,000000	43,797230
3503,000000	43,815736
3502,000000	44,015319
3501,000000	44,254199
3500,000000	44,403381
3499,000000	44,421977
3498,000000	44,355787
3497,000000	44,287452
3496,000000	44,276154
3495,000000	44,321300
3494,000000	44,375377
3493,000000	44,391485
3492,000000	44,351836
3491,000000	44,261995
3490,000000	44,144534
3489,000000	44,044625
3488,000000	44,008301
3487,000000	44,030670
3486,000000	44,042759
3485,000000	43,977133
3484,000000	43,843562
3483,000000	43,725806
3482,000000	43,705030
3481,000000	43,796338
3480,000000	43,945902
3479,000000	44,073183
3478,000000	44,124932
3477,000000	44,107958
3476,000000	44,075242
3475,000000	44,073460
3474,000000	44,106631
3473,000000	44,149672
3472,000000	44,181000
3471,000000	44,192008
3470,000000	44,181244
3469,000000	44,159050
3468,000000	44,148863
3467,000000	44,164586
3466,000000	44,190330
3465,000000	44,198885
3464,000000	44,189022
3463,000000	44,190530
3462,000000	44,231005
3461,000000	44,308898
3460,000000	44,399175
3459,000000	44,476668
3458,000000	44,532834
3457,000000	44,576395
3456,000000	44,620089
3455,000000	44,666626
3454,000000	44,710401
3453,000000	44,744826
3452,000000	44,752977
3451,000000	44,696190
3450,000000	44,546615
3449,000000	44,349020
3448,000000	44,220714
3447,000000	44,251388
3446,000000	44,409288
3445,000000	44,579241
3444,000000	44,687183
3443,000000	44,756444
3442,000000	44,841700
3441,000000	44,950357
3440,000000	45,050697
3439,000000	45,126109
3438,000000	45,188952
3437,000000	45,251759
3436,000000	45,311910
3435,000000	45,364175
3434,000000	45,410567
3433,000000	45,455703
3432,000000	45,503483
3431,000000	45,559052
3430,000000	45,625023
3429,000000	45,695991
3428,000000	45,763079
3427,000000	45,820411
3426,000000	45,859264
3425,000000	45,861478
3424,000000	45,814480
3423,000000	45,738369
3422,000000	45,686388
3421,000000	45,708069
3420,000000	45,809531
3419,000000	45,949658
3418,000000	46,072530
3417,000000	46,144664
3416,000000	46,168788
3415,000000	46,169841
3414,000000	46,169744
3413,000000	46,173748
3412,000000	46,176669
3411,000000	46,175615
3410,000000	46,172531
3409,000000	46,168068
3408,000000	46,159557
3407,000000	46,144552
3406,000000	46,122673
3405,000000	46,095378
3404,000000	46,068166
3403,000000	46,050110
3402,000000	46,043310
3401,000000	46,035024
3400,000000	46,010912
3399,000000	45,977446
3398,000000	45,958453
3397,000000	45,962651
3396,000000	45,967147
3395,000000	45,946619
3394,000000	45,912031
3393,000000	45,904129
3392,000000	45,947119
3391,000000	46,020634
3390,000000	46,080880
3389,000000	46,099527
3388,000000	46,078342
3387,000000	46,038443
3386,000000	46,005293
3385,000000	45,997974
3384,000000	46,019796
3383,000000	46,056314
3382,000000	46,087627
3381,000000	46,104939
3380,000000	46,113882
3379,000000	46,123574
3378,000000	46,137105
3377,000000	46,152944
3376,000000	46,170450
3375,000000	46,190042
3374,000000	46,209448
3373,000000	46,223113
3372,000000	46,226283
3371,000000	46,218384
3370,000000	46,202499
3369,000000	46,183954
3368,000000	46,171167
3367,000000	46,175042
3366,000000	46,202029
3365,000000	46,246182
3364,000000	46,292888
3363,000000	46,333295
3362,000000	46,371954
3361,000000	46,416681
3360,000000	46,464316
3359,000000	46,503250
3358,000000	46,529813
3357,000000	46,555447
3356,000000	46,594470
3355,000000	46,648589
3354,000000	46,706834
3353,000000	46,758270
3352,000000	46,801354
3351,000000	46,841637
3350,000000	46,883804
3349,000000	46,927733
3348,000000	46,970974
3347,000000	47,012302
3346,000000	47,051537
3345,000000	47,087840
3344,000000	47,121042
3343,000000	47,153770
3342,000000	47,188162
3341,000000	47,219489
3340,000000	47,238228
3339,000000	47,242409
3338,000000	47,245321
3337,000000	47,266596
3336,000000	47,315580
3335,000000	47,385043
3334,000000	47,458889
3333,000000	47,522891
3332,000000	47,569914
3331,000000	47,599961
3330,000000	47,617468
3329,000000	47,628003
3328,000000	47,637197
3327,000000	47,651633
3326,000000	47,677014
3325,000000	47,713527
3324,000000	47,755063
3323,000000	47,794299
3322,000000	47,826724
3321,000000	47,849977
3320,000000	47,863834
3319,000000	47,872242
3318,000000	47,879904
3317,000000	47,884687
3316,000000	47,879177
3315,000000	47,862795
3314,000000	47,845252
3313,000000	47,832721
3312,000000	47,818355
3311,000000	47,795419
3310,000000	47,774267
3309,000000	47,774242
3308,000000	47,799762
3307,000000	47,834179
3306,000000	47,858158
3305,000000	47,866561
3304,000000	47,865508
3303,000000	47,860479
3302,000000	47,851152
3301,000000	47,833711
3300,000000	47,806113
3299,000000	47,773169
3298,000000	47,744676
3297,000000	47,724388
3296,000000	47,702985
3295,000000	47,668602
3294,000000	47,623676
3293,000000	47,584555
3292,000000	47,563707
3291,000000	47,558525
3290,000000	47,559120
3289,000000	47,559244
3288,000000	47,555945
3287,000000	47,545043
3286,000000	47,523379
3285,000000	47,494160
3284,000000	47,465604
3283,000000	47,443735
3282,000000	47,427567
3281,000000	47,410246
3280,000000	47,383924
3279,000000	47,344981
3278,000000	47,296444
3277,000000	47,246865
3276,000000	47,207590
3275,000000	47,189507
3274,000000	47,197899
3273,000000	47,227736
3272,000000	47,265860
3271,000000	47,299665
3270,000000	47,323272
3269,000000	47,335779
3268,000000	47,338215
3267,000000	47,334937
3266,000000	47,333614
3265,000000	47,339299
3264,000000	47,349911
3263,000000	47,360345
3262,000000	47,369132
3261,000000	47,378336
3260,000000	47,389052
3259,000000	47,399580
3258,000000	47,406879
3257,000000	47,409988
3256,000000	47,414981
3255,000000	47,435987
3254,000000	47,484263
3253,000000	47,553544
3252,000000	47,622943
3251,000000	47,676371
3250,000000	47,711691
3249,000000	47,729715
3248,000000	47,727364
3247,000000	47,712125
3246,000000	47,711414
3245,000000	47,751400
3244,000000	47,827893
3243,000000	47,910497
3242,000000	47,975220
3241,000000	48,021423
3240,000000	48,059329
3239,000000	48,094423
3238,000000	48,128418
3237,000000	48,164268
3236,000000	48,202495
3235,000000	48,238600
3234,000000	48,269523
3233,000000	48,298575
3232,000000	48,329869
3231,000000	48,362345
3230,000000	48,393543
3229,000000	48,426084
3228,000000	48,465256
3227,000000	48,511154
3226,000000	48,556341
3225,000000	48,590984
3224,000000	48,608032
3223,000000	48,605677
3222,000000	48,589785
3221,000000	48,575205
3220,000000	48,578692
3219,000000	48,603182
3218,000000	48,629890
3217,000000	48,634593
3216,000000	48,614913
3215,000000	48,594466
3214,000000	48,593512
3213,000000	48,603200
3212,000000	48,599894
3211,000000	48,579038
3210,000000	48,560698
3209,000000	48,559631
3208,000000	48,566044
3207,000000	48,560877
3206,000000	48,538825
3205,000000	48,507804
3204,000000	48,474409
3203,000000	48,438701
3202,000000	48,397648
3201,000000	48,347808
3200,000000	48,290497
3199,000000	48,239792
3198,000000	48,217270
3197,000000	48,231067
3196,000000	48,264600
3195,000000	48,292408
3194,000000	48,302394
3193,000000	48,297323
3192,000000	48,282764
3191,000000	48,261448
3190,000000	48,234757
3189,000000	48,201112
3188,000000	48,156645
3187,000000	48,104435
3186,000000	48,058954
3185,000000	48,033856
3184,000000	48,026447
3183,000000	48,019149
3182,000000	47,993779
3181,000000	47,943879
3180,000000	47,879617
3179,000000	47,825188
3178,000000	47,802209
3177,000000	47,807927
3176,000000	47,815030
3175,000000	47,798390
3174,000000	47,755810
3173,000000	47,697249
3172,000000	47,624949
3171,000000	47,533671
3170,000000	47,423718
3169,000000	47,300673
3168,000000	47,166444
3167,000000	47,022303
3166,000000	46,878766
3165,000000	46,753822
3164,000000	46,662444
3163,000000	46,614949
3162,000000	46,619512
3161,000000	46,677891
3160,000000	46,778233
3159,000000	46,900708
3158,000000	47,030273
3157,000000	47,157180
3156,000000	47,271788
3155,000000	47,366681
3154,000000	47,443402
3153,000000	47,509328
3152,000000	47,568442
3151,000000	47,620686
3150,000000	47,667363
3149,000000	47,710953
3148,000000	47,750864
3147,000000	47,785631
3146,000000	47,816919
3145,000000	47,847040
3144,000000	47,875260
3143,000000	47,900966
3142,000000	47,927147
3141,000000	47,955816
3140,000000	47,983844
3139,000000	48,007304
3138,000000	48,023978
3137,000000	48,027727
3136,000000	48,008865
3135,000000	47,969785
3134,000000	47,933535
3133,000000	47,924093
3132,000000	47,938734
3131,000000	47,949019
3130,000000	47,928830
3129,000000	47,875509
3128,000000	47,802696
3127,000000	47,720787
3126,000000	47,626964
3125,000000	47,511068
3124,000000	47,369584
3123,000000	47,209722
3122,000000	47,036877
3121,000000	46,839395
3120,000000	46,592235
3119,000000	46,279989
3118,000000	45,905304
3117,000000	45,473375
3116,000000	44,976737
3115,000000	44,396149
3114,000000	43,712045
3113,000000	42,904282
3112,000000	41,954670
3111,000000	40,863434
3110,000000	39,658364
3109,000000	38,391153
3108,000000	37,126603
3107,000000	35,944984
3106,000000	34,935327
3105,000000	34,175528
3104,000000	33,708892
3103,000000	33,542494
3102,000000	33,652293
3101,000000	33,971486
3100,000000	34,391429
3099,000000	34,786086
3098,000000	35,054627
3097,000000	35,134590
3096,000000	34,987616
3095,000000	34,575845
3094,000000	33,856461
3093,000000	32,790510
3092,000000	31,352494
3091,000000	29,552987
3090,000000	27,441157
3089,000000	25,107036
3088,000000	22,679077
3087,000000	20,322121
3086,000000	18,219649
3085,000000	16,538486
3084,000000	15,400610
3083,000000	14,873252
3082,000000	14,970993
3081,000000	15,635415
3080,000000	16,732096
3079,000000	18,072281
3078,000000	19,448777
3077,000000	20,678922
3076,000000	21,625475
3075,000000	22,222270
3074,000000	22,463693
3073,000000	22,376034
3072,000000	21,980072
3071,000000	21,288785
3070,000000	20,317554
3069,000000	19,091598
3068,000000	17,657230
3067,000000	16,087242
3066,000000	14,483840
3065,000000	12,956279
3064,000000	11,602689
3063,000000	10,505440
3062,000000	9,733450
3061,000000	9,334210
3060,000000	9,328218
3059,000000	9,722074
3058,000000	10,504514
3057,000000	11,635169
3056,000000	13,027769
3055,000000	14,567136
3054,000000	16,142290
3053,000000	17,663050
3052,000000	19,069958
3051,000000	20,336178
3050,000000	21,459498
3049,000000	22,431984
3048,000000	23,220693
3047,000000	23,776362
3046,000000	24,056875
3045,000000	24,041064
3044,000000	23,722908
3043,000000	23,117861
3042,000000	22,258173
3041,000000	21,178191
3040,000000	19,903828
3039,000000	18,451605
3038,000000	16,843882
3037,000000	15,109527
3036,000000	13,287195
3035,000000	11,437114
3034,000000	9,642314
3033,000000	7,993883
3032,000000	6,564577
3031,000000	5,401774
3030,000000	4,521105
3029,000000	3,906783
3028,000000	3,518747
3027,000000	3,319014
3026,000000	3,299324
3025,000000	3,479529
3024,000000	3,909166
3023,000000	4,664414
3022,000000	5,829109
3021,000000	7,455131
3020,000000	9,518254
3019,000000	11,925371
3018,000000	14,540545
3017,000000	17,212858
3016,000000	19,799733
3015,000000	22,187505
3014,000000	24,304883
3013,000000	26,105178
3012,000000	27,552650
3011,000000	28,616532
3010,000000	29,280294
3009,000000	29,536953
3008,000000	29,391153
3007,000000	28,882425
3006,000000	28,100059
3005,000000	27,181794
3004,000000	26,291562
3003,000000	25,608591
3002,000000	25,309633
3001,000000	25,535502
3000,000000	26,350758
2999,000000	27,720086
2998,000000	29,513347
2997,000000	31,526146
2996,000000	33,538767
2995,000000	35,375664
2994,000000	36,947205
2993,000000	38,231709
2992,000000	39,244208
2991,000000	40,018000
2990,000000	40,598233
2989,000000	41,029150
2988,000000	41,338057
2987,000000	41,540937
2986,000000	41,649071
2985,000000	41,670231
2984,000000	41,606895
2983,000000	41,464234
2982,000000	41,258201
2981,000000	41,007336
2980,000000	40,727603
2979,000000	40,437858
2978,000000	40,161223
2977,000000	39,912856
2976,000000	39,690131
2975,000000	39,481086
2974,000000	39,272181
2973,000000	39,042571
2972,000000	38,763273
2971,000000	38,414135
2970,000000	37,995023
2969,000000	37,515170
2968,000000	36,978503
2967,000000	36,388292
2966,000000	35,753960
2965,000000	35,082786
2964,000000	34,372688
2963,000000	33,620114
2962,000000	32,828934
2961,000000	32,002027
2960,000000	31,133508
2959,000000	30,218154
2958,000000	29,258576
2957,000000	28,256088
2956,000000	27,202916
2955,000000	26,092940
2954,000000	24,932234
2953,000000	23,728691
2952,000000	22,481957
2951,000000	21,192582
2950,000000	19,872972
2949,000000	18,540010
2948,000000	17,203648
2947,000000	15,873999
2946,000000	14,569448
2945,000000	13,308969
2944,000000	12,102311
2943,000000	10,956043
2942,000000	9,881860
2941,000000	8,888168
2940,000000	7,973838
2939,000000	7,137124
2938,000000	6,384500
2937,000000	5,721546
2936,000000	5,143284
2935,000000	4,643499
2934,000000	4,222345
2933,000000	3,877692
2932,000000	3,597101
2931,000000	3,368287
2930,000000	3,189238
2929,000000	3,057678
2928,000000	2,961765
2927,000000	2,890604
2926,000000	2,844955
2925,000000	2,827984
2924,000000	2,833757
2923,000000	2,856096
2922,000000	2,898948
2921,000000	2,967416
2920,000000	3,057594
2919,000000	3,165326
2918,000000	3,296611
2917,000000	3,458772
2916,000000	3,649797
2915,000000	3,867276
2914,000000	4,119100
2913,000000	4,414286
2912,000000	4,751749
2911,000000	5,127650
2910,000000	5,546334
2909,000000	6,013384
2908,000000	6,526135
2907,000000	7,082604
2906,000000	7,691511
2905,000000	8,364066
2904,000000	9,102276
2903,000000	9,903819
2902,000000	10,769404
2901,000000	11,693792
2900,000000	12,657614
2899,000000	13,636705
2898,000000	14,613641
2897,000000	15,572128
2896,000000	16,490893
2895,000000	17,355168
2894,000000	18,165703
2893,000000	18,928984
2892,000000	19,645961
2891,000000	20,319437
2890,000000	20,962110
2889,000000	21,586123
2888,000000	22,192810
2887,000000	22,781915
2886,000000	23,362407
2885,000000	23,943804
2884,000000	24,526286
2883,000000	25,108427
2882,000000	25,695544
2881,000000	26,290348
2880,000000	26,883964
2879,000000	27,465392
2878,000000	28,030615
2877,000000	28,572889
2876,000000	29,073226
2875,000000	29,511820
2874,000000	29,878487
2873,000000	30,163047
2872,000000	30,345501
2871,000000	30,405472
2870,000000	30,333797
2869,000000	30,123869
2868,000000	29,763069
2867,000000	29,244454
2866,000000	28,578076
2865,000000	27,780652
2864,000000	26,863790
2863,000000	25,842651
2862,000000	24,746149
2861,000000	23,608122
2860,000000	22,454273
2859,000000	21,308720
2858,000000	20,203457
2857,000000	19,168586
2856,000000	18,223986
2855,000000	17,387458
2854,000000	16,683248
2853,000000	16,133672
2852,000000	15,749756
2851,000000	15,543840
2850,000000	15,540750
2849,000000	15,767265
2848,000000	16,242858
2847,000000	16,987538
2846,000000	18,029871
2845,000000	19,392645
2844,000000	21,074488
2843,000000	23,050533
2842,000000	25,277568
2841,000000	27,683121
2840,000000	30,164637
2839,000000	32,613373
2838,000000	34,936809
2837,000000	37,063261
2836,000000	38,939062
2835,000000	40,540340
2834,000000	41,879439
2833,000000	42,983897
2832,000000	43,878713
2831,000000	44,592490
2830,000000	45,163644
2829,000000	45,626895
2828,000000	46,001729
2827,000000	46,301902
2826,000000	46,547778
2825,000000	46,756043
2824,000000	46,929303
2823,000000	47,068978
2822,000000	47,186151
2821,000000	47,290902
2820,000000	47,380851
2819,000000	47,452274
2818,000000	47,512400
2817,000000	47,568735
2816,000000	47,617609
2815,000000	47,655000
2814,000000	47,688536
2813,000000	47,727599
2812,000000	47,771633
2811,000000	47,819099
2810,000000	47,877570
2809,000000	47,953186
2808,000000	48,040537
2807,000000	48,133788
2806,000000	48,237040
2805,000000	48,353493
2804,000000	48,475452
2803,000000	48,595922
2802,000000	48,719043
2801,000000	48,848108
2800,000000	48,975365
2799,000000	49,095025
2798,000000	49,214033
2797,000000	49,338506
2796,000000	49,461253
2795,000000	49,574750
2794,000000	49,684278
2793,000000	49,795848
2792,000000	49,903261
2791,000000	49,999729
2790,000000	50,090601
2789,000000	50,181760
2788,000000	50,266846
2787,000000	50,338799
2786,000000	50,402882
2785,000000	50,465788
2784,000000	50,523445
2783,000000	50,572480
2782,000000	50,622568
2781,000000	50,684159
2780,000000	50,754960
2779,000000	50,830837
2778,000000	50,918341
2777,000000	51,023474
2776,000000	51,138911
2775,000000	51,255207
2774,000000	51,373782
2773,000000	51,496437
2772,000000	51,613618
2771,000000	51,716511
2770,000000	51,809644
2769,000000	51,898725
2768,000000	51,977619
2767,000000	52,040003
2766,000000	52,092577
2765,000000	52,143353
2764,000000	52,187853
2763,000000	52,220340
2762,000000	52,247349
2761,000000	52,276488
2760,000000	52,302721
2759,000000	52,319007
2758,000000	52,330144
2757,000000	52,342940
2756,000000	52,353116
2755,000000	52,355159
2754,000000	52,354214
2753,000000	52,355893
2752,000000	52,354688
2751,000000	52,344732
2750,000000	52,331266
2749,000000	52,319193
2748,000000	52,301901
2747,000000	52,273578
2746,000000	52,240837
2745,000000	52,209891
2744,000000	52,174140
2743,000000	52,127329
2742,000000	52,076612
2741,000000	52,029219
2740,000000	51,978780
2739,000000	51,918042
2738,000000	51,853212
2737,000000	51,792093
2736,000000	51,730036
2735,000000	51,661485
2734,000000	51,593644
2733,000000	51,534873
2732,000000	51,480985
2731,000000	51,426297
2730,000000	51,376339
2729,000000	51,336331
2728,000000	51,299068
2727,000000	51,257757
2726,000000	51,219225
2725,000000	51,190733
2724,000000	51,166242
2723,000000	51,139194
2722,000000	51,116299
2721,000000	51,104673
2720,000000	51,097531
2719,000000	51,087113
2718,000000	51,079573
2717,000000	51,082629
2716,000000	51,090642
2715,000000	51,096273
2714,000000	51,104720
2713,000000	51,122207
2712,000000	51,142054
2711,000000	51,157031
2710,000000	51,173249
2709,000000	51,197624
2708,000000	51,223625
2707,000000	51,243898
2706,000000	51,264894
2705,000000	51,294187
2704,000000	51,325382
2703,000000	51,350342
2702,000000	51,374493
2701,000000	51,405228
2700,000000	51,437186
2699,000000	51,463697
2698,000000	51,491106
2697,000000	51,526792
2696,000000	51,564806
2695,000000	51,597825
2694,000000	51,631563
2693,000000	51,672854
2692,000000	51,715691
2691,000000	51,753579
2690,000000	51,793581
2689,000000	51,842950
2688,000000	51,894442
2687,000000	51,939735
2686,000000	51,985151
2685,000000	52,038865
2684,000000	52,094647
2683,000000	52,143921
2682,000000	52,191517
2681,000000	52,244128
2680,000000	52,295118
2679,000000	52,336426
2678,000000	52,373642
2677,000000	52,414087
2676,000000	52,451852
2675,000000	52,479986
2674,000000	52,505718
2673,000000	52,537996
2672,000000	52,571799
2671,000000	52,600199
2670,000000	52,629899
2669,000000	52,668789
2668,000000	52,709741
2667,000000	52,742325
2666,000000	52,769197
2665,000000	52,795759
2664,000000	52,815764
2663,000000	52,822615
2662,000000	52,823450
2661,000000	52,826599
2660,000000	52,826266
2659,000000	52,815218
2658,000000	52,800238
2657,000000	52,789710
2656,000000	52,777871
2655,000000	52,756828
2654,000000	52,732394
2653,000000	52,712424
2652,000000	52,691079
2651,000000	52,660691
2650,000000	52,627418
2649,000000	52,599620
2648,000000	52,572199
2647,000000	52,537728
2646,000000	52,501668
2645,000000	52,470772
2644,000000	52,437997
2643,000000	52,393510
2642,000000	52,339213
2641,000000	52,277946
2640,000000	52,200374
2639,000000	52,098438
2638,000000	51,979854
2637,000000	51,854940
2636,000000	51,722468
2635,000000	51,583593
2634,000000	51,457042
2633,000000	51,364413
2632,000000	51,311923
2631,000000	51,299081
2630,000000	51,330997
2629,000000	51,405231
2628,000000	51,498989
2627,000000	51,588654
2626,000000	51,669649
2625,000000	51,744829
2624,000000	51,807434
2623,000000	51,851284
2622,000000	51,884621
2621,000000	51,916072
2620,000000	51,939197
2619,000000	51,946238
2618,000000	51,944253
2617,000000	51,940835
2616,000000	51,928124
2615,000000	51,896983
2614,000000	51,853559
2613,000000	51,805858
2612,000000	51,746816
2611,000000	51,668267
2610,000000	51,578411
2609,000000	51,488491
2608,000000	51,396436
2607,000000	51,300579
2606,000000	51,216173
2605,000000	51,160565
2604,000000	51,134565
2603,000000	51,134233
2602,000000	51,167581
2601,000000	51,240965
2600,000000	51,341586
2599,000000	51,453165
2598,000000	51,574640
2597,000000	51,708066
2596,000000	51,840793
2595,000000	51,957968
2594,000000	52,061084
2593,000000	52,155960
2592,000000	52,235372
2591,000000	52,290768
2590,000000	52,328768
2589,000000	52,356938
2588,000000	52,367248
2587,000000	52,350480
2586,000000	52,315240
2585,000000	52,276167
2584,000000	52,236691
2583,000000	52,201821
2582,000000	52,193515
2581,000000	52,232873
2580,000000	52,316886
2579,000000	52,430203
2578,000000	52,565503
2577,000000	52,715201
2576,000000	52,858112
2575,000000	52,975197
2574,000000	53,069635
2573,000000	53,152781
2572,000000	53,222636
2571,000000	53,273129
2570,000000	53,312434
2569,000000	53,351449
2568,000000	53,386178
2567,000000	53,409265
2566,000000	53,427369
2565,000000	53,449817
2564,000000	53,471366
2563,000000	53,484271
2562,000000	53,495429
2561,000000	53,513601
2560,000000	53,531820
2559,000000	53,540175
2558,000000	53,543569
2557,000000	53,549706
2556,000000	53,551327
2555,000000	53,539204
2554,000000	53,519589
2553,000000	53,501358
2552,000000	53,478440
2551,000000	53,443106
2550,000000	53,404394
2549,000000	53,374668
2548,000000	53,350513
2547,000000	53,324744
2546,000000	53,304799
2545,000000	53,300225
2544,000000	53,304298
2543,000000	53,306075
2542,000000	53,308300
2541,000000	53,315785
2540,000000	53,319164
2539,000000	53,308748
2538,000000	53,291788
2537,000000	53,277604
2536,000000	53,258989
2535,000000	53,226649
2534,000000	53,188785
2533,000000	53,156494
2532,000000	53,123315
2531,000000	53,078627
2530,000000	53,028413
2529,000000	52,983472
2528,000000	52,938821
2527,000000	52,885381
2526,000000	52,829270
2525,000000	52,780086
2524,000000	52,732076
2523,000000	52,676553
2522,000000	52,621045
2521,000000	52,576485
2520,000000	52,536931
2519,000000	52,491449
2518,000000	52,444659
2517,000000	52,405965
2516,000000	52,370607
2515,000000	52,330047
2514,000000	52,289948
2513,000000	52,258887
2512,000000	52,231033
2511,000000	52,198950
2510,000000	52,171595
2509,000000	52,160233
2508,000000	52,159062
2507,000000	52,157952
2506,000000	52,161977
2505,000000	52,179573
2504,000000	52,203185
2503,000000	52,222036
2502,000000	52,241168
2501,000000	52,268752
2500,000000	52,296927
2499,000000	52,314936
2498,000000	52,329145
2497,000000	52,350565
2496,000000	52,374662
2495,000000	52,393097
2494,000000	52,413135
2493,000000	52,445391
2492,000000	52,484208
2491,000000	52,519497
2490,000000	52,556325
2489,000000	52,602816
2488,000000	52,651546
2487,000000	52,692603
2486,000000	52,733068
2485,000000	52,783869
2484,000000	52,839481
2483,000000	52,890451
2482,000000	52,943400
2481,000000	53,008328
2480,000000	53,078443
2479,000000	53,142819
2478,000000	53,206847
2477,000000	53,280084
2476,000000	53,355604
2475,000000	53,422481
2474,000000	53,486349
2473,000000	53,557363
2472,000000	53,629502
2471,000000	53,692453
2470,000000	53,751869
2469,000000	53,817156
2468,000000	53,881250
2467,000000	53,933168
2466,000000	53,979065
2465,000000	54,029594
2464,000000	54,078693
2463,000000	54,115718
2462,000000	54,146536
2461,000000	54,181441
2460,000000	54,213661
2459,000000	54,231722
2458,000000	54,241683
2457,000000	54,255348
2456,000000	54,268237
2455,000000	54,270862
2454,000000	54,270641
2453,000000	54,280398
2452,000000	54,295381
2451,000000	54,303948
2450,000000	54,310117
2449,000000	54,323590
2448,000000	54,337791
2447,000000	54,340406
2446,000000	54,336235
2445,000000	54,337347
2444,000000	54,339961
2443,000000	54,333058
2442,000000	54,320535
2441,000000	54,312874
2440,000000	54,305871
2439,000000	54,289307
2438,000000	54,268245
2437,000000	54,253627
2436,000000	54,240915
2435,000000	54,219347
2434,000000	54,193895
2433,000000	54,176183
2432,000000	54,162137
2431,000000	54,140282
2430,000000	54,113810
2429,000000	54,092842
2428,000000	54,073075
2427,000000	54,043984
2426,000000	54,010268
2425,000000	53,983333
2424,000000	53,958713
2423,000000	53,924103
2422,000000	53,882528
2421,000000	53,845892
2420,000000	53,812185
2419,000000	53,770918
2418,000000	53,724925
2417,000000	53,684820
2416,000000	53,647811
2415,000000	53,603277
2414,000000	53,553988
2413,000000	53,510741
2412,000000	53,471205
2411,000000	53,425021
2410,000000	53,374987
2409,000000	53,332103
2408,000000	53,294541
2407,000000	53,252341
2406,000000	53,208481
2405,000000	53,174205
2404,000000	53,147492
2403,000000	53,117029
2402,000000	53,084280
2401,000000	53,060749
2400,000000	53,045750
2399,000000	53,028200
2398,000000	53,008106
2397,000000	52,995934
2396,000000	52,991526
2395,000000	52,983642
2394,000000	52,969749
2393,000000	52,955453
2392,000000	52,933773
2391,000000	52,881904
2390,000000	52,781029
2389,000000	52,615930
2388,000000	52,353122
2387,000000	51,940890
2386,000000	51,327923
2385,000000	50,479158
2384,000000	49,362613
2383,000000	47,951274
2382,000000	46,253015
2381,000000	44,312856
2380,000000	42,197037
2379,000000	39,971752
2378,000000	37,707719
2377,000000	35,479818
2376,000000	33,338862
2375,000000	31,301933
2374,000000	29,374575
2373,000000	27,575413
2372,000000	25,920603
2371,000000	24,407472
2370,000000	23,026995
2369,000000	21,787001
2368,000000	20,702944
2367,000000	19,766489
2366,000000	18,962775
2365,000000	18,302102
2364,000000	17,808501
2363,000000	17,477524
2362,000000	17,274302
2361,000000	17,197862
2360,000000	17,296802
2359,000000	17,607133
2358,000000	18,124432
2357,000000	18,849902
2356,000000	19,836904
2355,000000	21,150795
2354,000000	22,849254
2353,000000	25,031312
2352,000000	27,733567
2351,000000	30,597918
2350,000000	32,699285
2349,000000	33,046324
2348,000000	31,438596
2347,000000	28,754105
2346,000000	26,244700
2345,000000	24,592445
2344,000000	23,704592
2343,000000	23,214983
2342,000000	22,935772
2341,000000	22,826701
2340,000000	22,833387
2339,000000	22,893600
2338,000000	23,019860
2337,000000	23,238725
2336,000000	23,503969
2335,000000	23,729177
2334,000000	23,878620
2333,000000	23,991656
2332,000000	24,151529
2331,000000	24,460215
2330,000000	24,989240
2329,000000	25,704756
2328,000000	26,465830
2327,000000	27,127235
2326,000000	27,636290
2325,000000	28,039686
2324,000000	28,437271
2323,000000	28,944262
2322,000000	29,640482
2321,000000	30,526041
2320,000000	31,541646
2319,000000	32,625211
2318,000000	33,711509
2317,000000	34,695602
2316,000000	35,477963
2315,000000	36,073141
2314,000000	36,616207
2313,000000	37,238143
2312,000000	37,975033
2311,000000	38,807344
2310,000000	39,718062
2309,000000	40,681720
2308,000000	41,651537
2307,000000	42,597622
2306,000000	43,517541
2305,000000	44,387356
2304,000000	45,151357
2303,000000	45,789234
2302,000000	46,344469
2301,000000	46,860808
2300,000000	47,333429
2299,000000	47,752440
2298,000000	48,141472
2297,000000	48,519740
2296,000000	48,872938
2295,000000	49,192997
2294,000000	49,507538
2293,000000	49,835560
2292,000000	50,156626
2291,000000	50,455038
2290,000000	50,752556
2289,000000	51,066510
2288,000000	51,376962
2287,000000	51,664325
2286,000000	51,936423
2285,000000	52,184829
2284,000000	52,360497
2283,000000	52,432869
2282,000000	52,433857
2281,000000	52,411716
2280,000000	52,376983
2279,000000	52,328583
2278,000000	52,289627
2277,000000	52,277191
2276,000000	52,272664
2275,000000	52,258057
2274,000000	52,250226
2273,000000	52,265216
2272,000000	52,284975
2271,000000	52,292142
2270,000000	52,303561
2269,000000	52,335298
2268,000000	52,370140
2267,000000	52,392521
2266,000000	52,420829
2265,000000	52,471221
2264,000000	52,524870
2263,000000	52,563842
2262,000000	52,605033
2261,000000	52,665021
2260,000000	52,726686
2259,000000	52,774194
2258,000000	52,825565
2257,000000	52,897459
2256,000000	52,972035
2255,000000	53,032750
2254,000000	53,097474
2253,000000	53,182873
2252,000000	53,270838
2251,000000	53,344036
2250,000000	53,419295
2249,000000	53,511751
2248,000000	53,601498
2247,000000	53,670005
2246,000000	53,734656
2245,000000	53,812312
2244,000000	53,884534
2243,000000	53,933454
2242,000000	53,977180
2241,000000	54,033434
2240,000000	54,083930
2239,000000	54,110076
2238,000000	54,129820
2237,000000	54,162486
2236,000000	54,191690
2235,000000	54,199443
2234,000000	54,202625
2233,000000	54,219767
2232,000000	54,234938
2231,000000	54,231404
2230,000000	54,226872
2229,000000	54,239502
2228,000000	54,251977
2227,000000	54,245880
2226,000000	54,237517
2225,000000	54,243913
2224,000000	54,246926
2223,000000	54,227935
2222,000000	54,204300
2221,000000	54,194305
2220,000000	54,180723
2219,000000	54,145301
2218,000000	54,106209
2217,000000	54,083092
2216,000000	54,059531
2215,000000	54,016838
2214,000000	53,972178
2213,000000	53,945399
2212,000000	53,921583
2211,000000	53,883821
2210,000000	53,849652
2209,000000	53,837391
2208,000000	53,829328
2207,000000	53,806554
2206,000000	53,785838
2205,000000	53,785083
2204,000000	53,785279
2203,000000	53,765304
2202,000000	53,740644
2201,000000	53,730194
2200,000000	53,717613
2199,000000	53,684662
2198,000000	53,648803
2197,000000	53,629328
2196,000000	53,609532
2195,000000	53,570295
2194,000000	53,528348
2193,000000	53,502626
2192,000000	53,476917
2191,000000	53,433456
2190,000000	53,390616
2189,000000	53,368091
2188,000000	53,349757
2187,000000	53,318375
2186,000000	53,293462
2185,000000	53,295438
2184,000000	53,306874
2183,000000	53,308366
2182,000000	53,317012
2181,000000	53,350894
2180,000000	53,389574
2179,000000	53,411031
2178,000000	53,431663
2177,000000	53,470775
2176,000000	53,509959
2175,000000	53,528403
2174,000000	53,543152
2173,000000	53,573836
2172,000000	53,603132
2171,000000	53,613050
2170,000000	53,624791
2169,000000	53,660468
2168,000000	53,700783
2167,000000	53,721696
2166,000000	53,738312
2165,000000	53,770533
2164,000000	53,801737
2163,000000	53,813655
2162,000000	53,826739
2161,000000	53,862431
2160,000000	53,900794
2159,000000	53,918517
2158,000000	53,933263
2157,000000	53,967400
2156,000000	54,003140
2155,000000	54,018533
2154,000000	54,031696
2153,000000	54,065635
2152,000000	54,102904
2151,000000	54,120466
2150,000000	54,134091
2149,000000	54,164817
2148,000000	54,195593
2147,000000	54,206173
2146,000000	54,215981
2145,000000	54,247380
2144,000000	54,280934
2143,000000	54,291776
2142,000000	54,296464
2141,000000	54,317933
2140,000000	54,339224
2139,000000	54,337544
2138,000000	54,331452
2137,000000	54,347533
2136,000000	54,372535
2135,000000	54,382848
2134,000000	54,388962
2133,000000	54,407192
2132,000000	54,420137
2131,000000	54,409397
2130,000000	54,394482
2129,000000	54,396644
2128,000000	54,397226
2127,000000	54,374725
2126,000000	54,347786
2125,000000	54,339364
2124,000000	54,332521
2123,000000	54,305697
2122,000000	54,275799
2121,000000	54,263863
2120,000000	54,252169
2119,000000	54,218257
2118,000000	54,177014
2117,000000	54,148163
2116,000000	54,119377
2115,000000	54,080278
2114,000000	54,054624
2113,000000	54,056610
2112,000000	54,055936
2111,000000	54,027279
2110,000000	53,994269
2109,000000	53,982295
2108,000000	53,971574
2107,000000	53,939854
2106,000000	53,907992
2105,000000	53,897676
2104,000000	53,886757
2103,000000	53,853044
2102,000000	53,818658
2101,000000	53,806470
2100,000000	53,795035
2099,000000	53,763016
2098,000000	53,732910
2097,000000	53,726267
2096,000000	53,719528
2095,000000	53,689458
2094,000000	53,654967
2093,000000	53,630566
2092,000000	53,590946
2091,000000	53,528334
2090,000000	53,490263
2089,000000	53,507207
2088,000000	53,537499
2087,000000	53,535203
2086,000000	53,520259
2085,000000	53,524888
2084,000000	53,528100
2083,000000	53,502891
2082,000000	53,475046
2081,000000	53,472660
2080,000000	53,468944
2079,000000	53,436982
2078,000000	53,408674
2077,000000	53,417208
2076,000000	53,432887
2075,000000	53,420980
2074,000000	53,408593
2073,000000	53,429519
2072,000000	53,456222
2071,000000	53,454784
2070,000000	53,449313
2069,000000	53,459961
2068,000000	53,438341
2067,000000	53,349786
2066,000000	53,266657
2065,000000	53,285407
2064,000000	53,390983
2063,000000	53,489687
2062,000000	53,543680
2061,000000	53,584916
2060,000000	53,628086
2059,000000	53,657628
2058,000000	53,682089
2057,000000	53,723234
2056,000000	53,765905
2055,000000	53,784679
2054,000000	53,797868
2053,000000	53,834575
2052,000000	53,876665
2051,000000	53,894460
2050,000000	53,905561
2049,000000	53,937821
2048,000000	53,970178
2047,000000	53,973444
2046,000000	53,967200
2045,000000	53,972469
2044,000000	53,955740
2043,000000	53,894371
2042,000000	53,849347
2041,000000	53,889620
2040,000000	53,983640
2039,000000	54,047241
2038,000000	54,064503
2037,000000	54,076747
2036,000000	54,089340
2035,000000	54,076812
2034,000000	54,053978
2033,000000	54,055422
2032,000000	54,065835
2031,000000	54,048143
2030,000000	54,017250
2029,000000	54,012034
2028,000000	54,020469
2027,000000	54,006990
2026,000000	53,984423
2025,000000	53,984936
2024,000000	53,991018
2023,000000	53,968666
2022,000000	53,928645
2021,000000	53,877485
2020,000000	53,759099
2019,000000	53,546829
2018,000000	53,352090
2017,000000	53,324669
2016,000000	53,459792
2015,000000	53,609210
2014,000000	53,672782
2013,000000	53,671060
2012,000000	53,641319
2011,000000	53,579020
2010,000000	53,497327
2009,000000	53,442167
2008,000000	53,420718
2007,000000	53,394015
2006,000000	53,354338
2005,000000	53,332984
2004,000000	53,324454
2003,000000	53,284549
2002,000000	53,211520
2001,000000	53,148685
2000,000000	53,100263
1999,000000	53,031314
1998,000000	52,952817
1997,000000	52,898210
1996,000000	52,795669
1995,000000	52,492600
1994,000000	51,979029
1993,000000	51,489685
1992,000000	51,281099
1991,000000	51,355411
1990,000000	51,496221
1989,000000	51,537824
1988,000000	51,502223
1987,000000	51,482765
1986,000000	51,496518
1985,000000	51,498832
1984,000000	51,476192
1983,000000	51,458369
1982,000000	51,459683
1981,000000	51,459162
1980,000000	51,439141
1979,000000	51,405082
1978,000000	51,360672
1977,000000	51,290953
1976,000000	51,181375
1975,000000	51,031652
1974,000000	50,840878
1973,000000	50,600074
1972,000000	50,294160
1971,000000	49,888221
1970,000000	49,331937
1969,000000	48,637430
1968,000000	47,955159
1967,000000	47,482340
1966,000000	47,254955
1965,000000	47,098323
1964,000000	46,832846
1963,000000	46,460300
1962,000000	46,091781
1961,000000	45,776659
1960,000000	45,491217
1959,000000	45,230771
1958,000000	45,005680
1957,000000	44,785121
1956,000000	44,537661
1955,000000	44,292398
1954,000000	44,075595
1953,000000	43,833075
1952,000000	43,500245
1951,000000	43,096686
1950,000000	42,666697
1949,000000	42,192563
1948,000000	41,661538
1947,000000	41,131172
1946,000000	40,620368
1945,000000	40,053516
1944,000000	39,479726
1943,000000	39,222376
1942,000000	39,577176
1941,000000	40,421307
1940,000000	41,338001
1939,000000	42,106295
1938,000000	42,834814
1937,000000	43,638973
1936,000000	44,459753
1935,000000	45,231191
1934,000000	45,992646
1933,000000	46,757041
1932,000000	47,448372
1931,000000	48,029776
1930,000000	48,547610
1929,000000	49,016841
1928,000000	49,390727
1927,000000	49,633658
1926,000000	49,698062
1925,000000	49,535166
1924,000000	49,293904
1923,000000	49,333605
1922,000000	49,740404
1921,000000	50,003325
1920,000000	49,619211
1919,000000	48,935690
1918,000000	48,871921
1917,000000	49,737530
1916,000000	50,856842
1915,000000	51,496391
1914,000000	51,635675
1913,000000	51,590318
1912,000000	51,411395
1911,000000	51,059096
1910,000000	50,769823
1909,000000	50,798617
1908,000000	51,015235
1907,000000	51,127272
1906,000000	51,102988
1905,000000	51,071443
1904,000000	51,003272
1903,000000	50,805972
1902,000000	50,565370
1901,000000	50,399695
1900,000000	50,215287
1899,000000	49,854644
1898,000000	49,342793
1897,000000	48,796872
1896,000000	48,269856
1895,000000	47,837765
1894,000000	47,584954
1893,000000	47,316423
1892,000000	46,632708
1891,000000	45,551381
1890,000000	44,715823
1889,000000	44,628518
1888,000000	44,986173
1887,000000	45,145905
1886,000000	44,963696
1885,000000	44,745931
1884,000000	44,617398
1883,000000	44,445083
1882,000000	44,224875
1881,000000	44,085251
1880,000000	43,981223
1879,000000	43,777777
1878,000000	43,543638
1877,000000	43,422354
1876,000000	43,335626
1875,000000	43,138996
1874,000000	42,885027
1873,000000	42,560857
1872,000000	41,830313
1871,000000	40,535863
1870,000000	39,297274
1869,000000	39,026135
1868,000000	39,899718
1867,000000	41,273204
1866,000000	42,539947
1865,000000	43,583153
1864,000000	44,423077
1863,000000	45,010544
1862,000000	45,456753
1861,000000	46,003136
1860,000000	46,654790
1859,000000	47,211289
1858,000000	47,672133
1857,000000	48,218862
1856,000000	48,801127
1855,000000	49,181715
1854,000000	49,394962
1853,000000	49,695007
1852,000000	50,029099
1851,000000	50,083002
1850,000000	49,869333
1849,000000	49,689198
1848,000000	49,381977
1847,000000	48,294469
1846,000000	46,397204
1845,000000	44,882580
1844,000000	45,079796
1843,000000	46,975331
1842,000000	49,234449
1841,000000	50,592068
1840,000000	50,854492
1839,000000	50,626139
1838,000000	50,451479
1837,000000	50,427451
1836,000000	50,452362
1835,000000	50,473189
1834,000000	50,319518
1833,000000	49,551066
1832,000000	47,949808
1831,000000	46,198268
1830,000000	45,483358
1829,000000	46,096440
1828,000000	46,903656
1827,000000	46,748349
1826,000000	45,924066
1825,000000	45,632194
1824,000000	46,266329
1823,000000	47,051220
1822,000000	47,292070
1821,000000	47,104916
1820,000000	46,811762
1819,000000	46,394480
1818,000000	45,861036
1817,000000	45,496163
1816,000000	45,388068
1815,000000	45,162175
1814,000000	44,504085
1813,000000	43,594284
1812,000000	42,791345
1811,000000	42,248439
1810,000000	41,999300
1809,000000	42,049707
1808,000000	42,202510
1807,000000	42,143596
1806,000000	41,818940
1805,000000	41,398595
1804,000000	40,853802
1803,000000	40,041276
1802,000000	39,239101
1801,000000	39,045139
1800,000000	39,610604
1799,000000	40,492555
1798,000000	41,337482
1797,000000	42,073162
1796,000000	42,357034
1795,000000	41,639775
1794,000000	40,191678
1793,000000	39,325853
1792,000000	40,116437
1791,000000	42,285032
1790,000000	44,698839
1789,000000	46,454889
1788,000000	47,173487
1787,000000	46,911927
1786,000000	46,283043
1785,000000	46,119357
1784,000000	46,528066
1783,000000	46,761751
1782,000000	46,386949
1781,000000	45,982520
1780,000000	46,175011
1779,000000	46,657183
1778,000000	46,762209
1777,000000	46,343013
1776,000000	45,388255
1775,000000	43,520840
1774,000000	40,889773
1773,000000	38,955637
1772,000000	39,170746
1771,000000	41,042728
1770,000000	42,701643
1769,000000	43,315536
1768,000000	43,818837
1767,000000	45,056480
1766,000000	46,317815
1765,000000	46,304003
1764,000000	44,835016
1763,000000	43,059564
1762,000000	42,259202
1761,000000	42,717804
1760,000000	43,561054
1759,000000	43,617663
1758,000000	42,711628
1757,000000	41,943214
1756,000000	42,212252
1755,000000	42,778362
1754,000000	42,046782
1753,000000	39,741024
1752,000000	37,375800
1751,000000	36,368918
1750,000000	36,634193
1749,000000	37,344708
1748,000000	38,165084
1747,000000	39,067150
1746,000000	39,698352
1745,000000	39,764685
1744,000000	39,559663
1743,000000	39,389838
1742,000000	38,951039
1741,000000	38,119207
1740,000000	37,812280
1739,000000	38,872039
1738,000000	40,174685
1737,000000	39,365836
1736,000000	35,954422
1735,000000	32,579782
1734,000000	32,285136
1733,000000	35,177272
1732,000000	38,770024
1731,000000	41,075486
1730,000000	42,246547
1729,000000	43,276388
1728,000000	44,332417
1727,000000	44,929366
1726,000000	44,938491
1725,000000	44,743654
1724,000000	44,712325
1723,000000	44,831379
1722,000000	44,619413
1721,000000	43,206840
1720,000000	40,141739
1719,000000	36,460735
1718,000000	34,291377
1717,000000	34,812532
1716,000000	37,112393
1715,000000	39,564370
1714,000000	41,646929
1713,000000	43,587467
1712,000000	45,039980
1711,000000	45,370406
1710,000000	44,844465
1709,000000	44,185822
1708,000000	43,258854
1707,000000	41,658089
1706,000000	40,306837
1705,000000	40,486606
1704,000000	41,115204
1703,000000	39,319168
1702,000000	34,695991
1701,000000	30,907035
1700,000000	31,204944
1699,000000	34,076930
1698,000000	35,551787
1697,000000	34,711294
1696,000000	34,466892
1695,000000	37,014452
1694,000000	40,988519
1693,000000	43,657132
1692,000000	44,084142
1691,000000	43,335192
1690,000000	42,647734
1689,000000	42,248362
1688,000000	41,236309
1687,000000	38,413812
1686,000000	34,018779
1685,000000	30,553731
1684,000000	30,693629
1683,000000	34,217033
1682,000000	38,173513
1681,000000	40,386822
1680,000000	41,229528
1679,000000	41,557510
1678,000000	40,810774
1677,000000	38,512705
1676,000000	36,230765
1675,000000	36,064341
1674,000000	37,740476
1673,000000	38,834553
1672,000000	37,902079
1671,000000	36,024499
1670,000000	35,154696
1669,000000	36,091947
1668,000000	38,265149
1667,000000	40,475096
1666,000000	41,473522
1665,000000	40,693951
1664,000000	39,016056
1663,000000	38,222257
1662,000000	39,180581
1661,000000	41,004663
1660,000000	42,324866
1659,000000	42,770978
1658,000000	42,542071
1657,000000	40,987916
1656,000000	36,956443
1655,000000	30,964689
1654,000000	26,164475
1653,000000	25,961639
1652,000000	30,500655
1651,000000	36,185761
1650,000000	38,954592
1649,000000	37,859239
1648,000000	35,242381
1647,000000	34,024236
1646,000000	35,330560
1645,000000	38,319363
1644,000000	41,339920
1643,000000	43,156900
1642,000000	43,581939
1641,000000	43,266055
1640,000000	42,618912
1639,000000	41,073589
1638,000000	38,035133
1637,000000	34,487495
1636,000000	32,766753
1635,000000	34,264164
1634,000000	37,881921
1633,000000	41,230689
1632,000000	42,819633
1631,000000	42,721384
1630,000000	41,739144
1629,000000	40,683263
1628,000000	40,114406
1627,000000	39,989485
1626,000000	39,589491
1625,000000	38,432216
1624,000000	37,211003
1623,000000	37,198349
1622,000000	38,598186
1621,000000	39,960445
1620,000000	39,531384
1619,000000	37,009113
1618,000000	33,874417
1617,000000	32,169098
1616,000000	32,815397
1615,000000	34,887964
1614,000000	36,484359
1613,000000	36,414318
1612,000000	34,958433
1611,000000	33,001593
1610,000000	30,846774
1609,000000	28,227471
1608,000000	25,094746
1607,000000	21,779924
1606,000000	18,505179
1605,000000	15,305361
1604,000000	12,453847
1603,000000	10,473215
1602,000000	9,622288
1601,000000	9,785397
1600,000000	10,870919
1599,000000	12,930806
1598,000000	15,747083
1597,000000	18,741781
1596,000000	21,490675
1595,000000	23,982563
1594,000000	26,276143
1593,000000	28,219921
1592,000000	29,708947
1591,000000	30,875909
1590,000000	31,807685
1589,000000	32,274540
1588,000000	31,973688
1587,000000	30,892105
1586,000000	29,289086
1585,000000	27,549368
1584,000000	26,223741
1583,000000	25,994069
1582,000000	27,234800
1581,000000	29,487792
1580,000000	31,506774
1579,000000	32,050005
1578,000000	30,995325
1577,000000	29,755927
1576,000000	30,267966
1575,000000	33,087034
1574,000000	36,544716
1573,000000	38,218601
1572,000000	37,343904
1571,000000	35,450738
1570,000000	34,630314
1569,000000	35,559732
1568,000000	37,280768
1567,000000	38,509922
1566,000000	38,826803
1565,000000	38,716742
1564,000000	38,536218
1563,000000	37,495828
1562,000000	34,185191
1561,000000	28,661482
1560,000000	23,621679
1559,000000	22,347585
1558,000000	25,242475
1557,000000	29,403124
1556,000000	31,999289
1555,000000	33,023733
1554,000000	34,030094
1553,000000	35,363044
1552,000000	36,036438
1551,000000	35,799994
1550,000000	35,616196
1549,000000	35,979624
1548,000000	36,054689
1547,000000	34,994500
1546,000000	33,133876
1545,000000	31,304085
1544,000000	29,638403
1543,000000	27,678486
1542,000000	25,367714
1541,000000	23,542918
1540,000000	23,530447
1539,000000	26,119939
1538,000000	30,463037
1537,000000	34,119096
1536,000000	35,028655
1535,000000	33,686901
1534,000000	32,622870
1533,000000	33,546791
1532,000000	35,712991
1531,000000	37,355836
1530,000000	37,703115
1529,000000	37,078326
1528,000000	35,962445
1527,000000	34,854420
1526,000000	34,300127
1525,000000	34,107011
1524,000000	33,156972
1523,000000	31,009566
1522,000000	29,159404
1521,000000	29,421887
1520,000000	31,408484
1519,000000	32,951116
1518,000000	33,047224
1517,000000	32,924234
1516,000000	33,834696
1515,000000	35,188919
1514,000000	35,665858
1513,000000	35,164612
1512,000000	34,492230
1511,000000	33,682119
1510,000000	31,764742
1509,000000	28,337526
1508,000000	24,632736
1507,000000	22,676930
1506,000000	23,531606
1505,000000	26,341532
1504,000000	28,964850
1503,000000	29,578900
1502,000000	27,819232
1501,000000	24,471752
1500,000000	20,348322
1499,000000	15,812429
1498,000000	11,246401
1497,000000	7,323966
1496,000000	4,562406
1495,000000	2,925174
1494,000000	2,115944
1493,000000	1,981032
1492,000000	2,507699
1491,000000	3,688519
1490,000000	5,582037
1489,000000	8,239361
1488,000000	11,475623
1487,000000	14,938818
1486,000000	18,413955
1485,000000	21,773934
1484,000000	24,675970
1483,000000	26,791412
1482,000000	28,318905
1481,000000	29,739825
1480,000000	30,980104
1479,000000	31,442964
1478,000000	31,002056
1477,000000	30,250503
1476,000000	29,527119
1475,000000	28,477202
1474,000000	27,099244
1473,000000	26,432647
1472,000000	27,462355
1471,000000	29,741531
1470,000000	31,811199
1469,000000	32,652300
1468,000000	32,173405
1467,000000	30,738074
1466,000000	28,975386
1465,000000	27,788027
1464,000000	27,649257
1463,000000	27,880151
1462,000000	27,166465
1461,000000	24,826136
1460,000000	21,121437
1459,000000	16,629556
1458,000000	11,941044
1457,000000	7,841554
1456,000000	5,021960
1455,000000	3,465561
1454,000000	2,613346
1453,000000	2,149991
1452,000000	2,178290
1451,000000	2,666065
1450,000000	3,305948
1449,000000	3,976650
1448,000000	4,861071
1447,000000	6,026192
1446,000000	7,302963
1445,000000	8,627127
1444,000000	10,107569
1443,000000	11,737113
1442,000000	13,362169
1441,000000	14,868266
1440,000000	16,081264
1439,000000	16,736334
1438,000000	17,030530
1437,000000	17,943746
1436,000000	20,295017
1435,000000	23,589810
1434,000000	26,440162
1433,000000	28,128379
1432,000000	29,079328
1431,000000	29,904361
1430,000000	30,782307
1429,000000	31,788130
1428,000000	32,962500
1427,000000	33,879473
1426,000000	33,992710
1425,000000	33,598087
1424,000000	33,588529
1423,000000	33,933631
1422,000000	33,443957
1421,000000	31,598940
1420,000000	29,722403
1419,000000	29,530885
1418,000000	31,096930
1417,000000	33,095938
1416,000000	34,503415
1415,000000	35,257349
1414,000000	35,565136
1413,000000	35,501103
1412,000000	35,273259
1411,000000	35,186339
1410,000000	35,235931
1409,000000	35,132984
1408,000000	34,723667
1407,000000	34,091849
1406,000000	33,424032
1405,000000	33,028185
1404,000000	33,194336
1403,000000	33,675596
1402,000000	33,668977
1401,000000	32,778011
1400,000000	31,680526
1399,000000	31,246129
1398,000000	31,325151
1397,000000	31,080704
1396,000000	30,339168
1395,000000	29,854905
1394,000000	30,167716
1393,000000	30,901747
1392,000000	31,306782
1391,000000	30,979297
1390,000000	29,920252
1389,000000	28,411222
1388,000000	27,041598
1387,000000	26,395035
1386,000000	26,449637
1385,000000	26,598696
1384,000000	26,403352
1383,000000	25,988690
1382,000000	25,612336
1381,000000	25,237338
1380,000000	24,752396
1379,000000	24,239894
1378,000000	23,761018
1377,000000	23,156508
1376,000000	22,349700
1375,000000	21,644331
1374,000000	21,433981
1373,000000	21,726089
1372,000000	22,159006
1371,000000	22,427822
1370,000000	22,519114
1369,000000	22,594702
1368,000000	22,776064
1367,000000	23,005564
1366,000000	23,064918
1365,000000	22,803246
1364,000000	22,385612
1363,000000	22,212170
1362,000000	22,520629
1361,000000	23,170678
1360,000000	23,857760
1359,000000	24,403592
1358,000000	24,783567
1357,000000	25,011569
1356,000000	25,126884
1355,000000	25,213873
1354,000000	25,325898
1353,000000	25,423076
1352,000000	25,449519
1351,000000	25,428257
1350,000000	25,431926
1349,000000	25,500752
1348,000000	25,630332
1347,000000	25,807880
1346,000000	26,024045
1345,000000	26,260416
1344,000000	26,467416
1343,000000	26,551202
1342,000000	26,436031
1341,000000	26,187557
1340,000000	26,020606
1339,000000	26,098008
1338,000000	26,347875
1337,000000	26,558973
1336,000000	26,605798
1335,000000	26,497061
1334,000000	26,255749
1333,000000	25,888161
1332,000000	25,465662
1331,000000	25,111569
1330,000000	24,888403
1329,000000	24,780960
1328,000000	24,786734
1327,000000	24,923740
1326,000000	25,153000
1325,000000	25,387004
1324,000000	25,584171
1323,000000	25,747397
1322,000000	25,840260
1321,000000	25,806470
1320,000000	25,678066
1319,000000	25,562506
1318,000000	25,501917
1317,000000	25,431573
1316,000000	25,291042
1315,000000	25,106232
1314,000000	24,943766
1313,000000	24,854648
1312,000000	24,871432
1311,000000	24,994665
1310,000000	25,171454
1309,000000	25,345887
1308,000000	25,526439
1307,000000	25,750732
1306,000000	26,003124
1305,000000	26,233077
1304,000000	26,440279
1303,000000	26,665019
1302,000000	26,905743
1301,000000	27,117096
1300,000000	27,283893
1299,000000	27,424188
1298,000000	27,530538
1297,000000	27,579791
1296,000000	27,592893
1295,000000	27,615988
1294,000000	27,650671
1293,000000	27,667918
1292,000000	27,677453
1291,000000	27,714138
1290,000000	27,769593
1289,000000	27,809420
1288,000000	27,841722
1287,000000	27,897270
1286,000000	27,953393
1285,000000	27,955577
1284,000000	27,904540
1283,000000	27,852135
1282,000000	27,820269
1281,000000	27,795800
1280,000000	27,794661
1279,000000	27,854206
1278,000000	27,966727
1277,000000	28,086757
1276,000000	28,199723
1275,000000	28,317232
1274,000000	28,419338
1273,000000	28,472214
1272,000000	28,494872
1271,000000	28,535405
1270,000000	28,588096
1269,000000	28,602259
1268,000000	28,565779
1267,000000	28,513839
1266,000000	28,459239
1265,000000	28,382891
1264,000000	28,289077
1263,000000	28,207466
1262,000000	28,144543
1261,000000	28,092366
1260,000000	28,072758
1259,000000	28,109814
1258,000000	28,168990
1257,000000	28,189064
1256,000000	28,164075
1255,000000	28,132083
1254,000000	28,097104
1253,000000	28,029398
1252,000000	27,933706
1251,000000	27,846346
1250,000000	27,770757
1249,000000	27,680772
1248,000000	27,582396
1247,000000	27,507535
1246,000000	27,453733
1245,000000	27,392991
1244,000000	27,333391
1243,000000	27,307932
1242,000000	27,308724
1241,000000	27,296233
1240,000000	27,267905
1239,000000	27,254413
1238,000000	27,252717
1237,000000	27,227694
1236,000000	27,175758
1235,000000	27,124863
1234,000000	27,073773
1233,000000	26,993111
1232,000000	26,884366
1231,000000	26,778956
1230,000000	26,679419
1229,000000	26,560269
1228,000000	26,425200
1227,000000	26,306663
1226,000000	26,211177
1225,000000	26,118539
1224,000000	26,031089
1223,000000	25,968047
1222,000000	25,915939
1221,000000	25,839331
1220,000000	25,737479
1219,000000	25,637111
1218,000000	25,535682
1217,000000	25,404906
1216,000000	25,244822
1215,000000	25,079681
1214,000000	24,907485
1213,000000	24,707998
1212,000000	24,492087
1211,000000	24,289219
1210,000000	24,090944
1209,000000	23,862464
1208,000000	23,603303
1207,000000	23,341309
1206,000000	23,074730
1205,000000	22,776484
1204,000000	22,451391
1203,000000	22,133825
1202,000000	21,832814
1201,000000	21,534121
1200,000000	21,252457
1199,000000	21,025527
1198,000000	20,856491
1197,000000	20,715200
1196,000000	20,591771
1195,000000	20,498331
1194,000000	20,422670
1193,000000	20,332718
1192,000000	20,225402
1191,000000	20,118476
1190,000000	19,996502
1189,000000	19,813058
1188,000000	19,545206
1187,000000	19,194561
1186,000000	18,748130
1185,000000	18,197252
1184,000000	17,601429
1183,000000	17,083246
1182,000000	16,758647
1181,000000	16,702667
1180,000000	16,956519
1179,000000	17,502508
1178,000000	18,219634
1177,000000	18,933818
1176,000000	19,527209
1175,000000	19,971407
1174,000000	20,273860
1173,000000	20,446098
1172,000000	20,522986
1171,000000	20,552255
1170,000000	20,552388
1169,000000	20,511757
1168,000000	20,435709
1167,000000	20,346775
1166,000000	20,241713
1165,000000	20,094436
1164,000000	19,894641
1163,000000	19,645063
1162,000000	19,319641
1161,000000	18,870407
1160,000000	18,284364
1159,000000	17,596141
1158,000000	16,859913
1157,000000	16,151999
1156,000000	15,596187
1155,000000	15,323193
1154,000000	15,394965
1153,000000	15,782678
1152,000000	16,404413
1151,000000	17,148145
1150,000000	17,871520
1149,000000	18,457130
1148,000000	18,878251
1147,000000	19,181747
1146,000000	19,410606
1145,000000	19,580223
1144,000000	19,712145
1143,000000	19,836187
1142,000000	19,955152
1141,000000	20,047494
1140,000000	20,111700
1139,000000	20,165437
1138,000000	20,206675
1137,000000	20,217865
1136,000000	20,204935
1135,000000	20,191978
1134,000000	20,178764
1133,000000	20,144377
1132,000000	20,090765
1131,000000	20,039672
1130,000000	19,991178
1129,000000	19,925685
1128,000000	19,844720
1127,000000	19,768585
1126,000000	19,694697
1125,000000	19,599990
1124,000000	19,481802
1123,000000	19,356164
1122,000000	19,218888
1121,000000	19,048072
1120,000000	18,844550
1119,000000	18,630919
1118,000000	18,412647
1117,000000	18,181123
1116,000000	17,951227
1115,000000	17,755856
1114,000000	17,603073
1113,000000	17,477289
1112,000000	17,378040
1111,000000	17,319099
1110,000000	17,290854
1109,000000	17,263247
1108,000000	17,227242
1107,000000	17,193993
1106,000000	17,157385
1105,000000	17,095025
1104,000000	17,006295
1103,000000	16,910323
1102,000000	16,808559
1101,000000	16,685491
1100,000000	16,544864
1099,000000	16,408043
1098,000000	16,276497
1097,000000	16,134009
1096,000000	15,983133
1095,000000	15,843510
1094,000000	15,714873
1093,000000	15,578416
1092,000000	15,432699
1091,000000	15,292525
1090,000000	15,153090
1089,000000	14,992410
1088,000000	14,806937
1087,000000	14,610461
1086,000000	14,399531
1085,000000	14,155250
1084,000000	13,880402
1083,000000	13,598650
1082,000000	13,320424
1081,000000	13,041699
1080,000000	12,771978
1079,000000	12,525752
1078,000000	12,286246
1077,000000	12,014385
1076,000000	11,696840
1075,000000	11,355858
1074,000000	11,015137
1073,000000	10,691321
1072,000000	10,415114
1071,000000	10,222801
1070,000000	10,126546
1069,000000	10,117673
1068,000000	10,199100
1067,000000	10,381165
1066,000000	10,645006
1065,000000	10,950094
1064,000000	11,270258
1063,000000	11,597801
1062,000000	11,915313
1061,000000	12,197941
1060,000000	12,443617
1059,000000	12,667233
1058,000000	12,866375
1057,000000	13,021365
1056,000000	13,129462
1055,000000	13,204995
1054,000000	13,253671
1053,000000	13,276724
1052,000000	13,298440
1051,000000	13,356285
1050,000000	13,463602
1049,000000	13,608171
1048,000000	13,780937
1047,000000	13,975177
1046,000000	14,163406
1045,000000	14,310539
1044,000000	14,408720
1043,000000	14,471600
1042,000000	14,494475
1041,000000	14,454371
1040,000000	14,335479
1039,000000	14,122623
1038,000000	13,774309
1037,000000	13,227594
1036,000000	12,448804
1035,000000	11,454483
1034,000000	10,308099
1033,000000	9,125499
1032,000000	8,062136
1031,000000	7,247045
1030,000000	6,724916
1029,000000	6,490418
1028,000000	6,551869
1027,000000	6,927060
1026,000000	7,566656
1025,000000	8,345101
1024,000000	9,139386
1023,000000	9,879523
1022,000000	10,537448
1021,000000	11,104986
1020,000000	11,599799
1019,000000	12,052670
1018,000000	12,474198
1017,000000	12,853163
1016,000000	13,190646
1015,000000	13,505857
1014,000000	13,803588
1013,000000	14,071038
1012,000000	14,304958
1011,000000	14,514919
1010,000000	14,694512
1009,000000	14,814369
1008,000000	14,853404
1007,000000	14,809200
1006,000000	14,688899
1005,000000	14,524240
1004,000000	14,400483
1003,000000	14,427621
1002,000000	14,663524
1001,000000	15,072047
1000,000000	15,555550
999,000000	16,010929
998,000000	16,362371
997,000000	16,583733
996,000000	16,703513
995,000000	16,769682
994,000000	16,802089
993,000000	16,795122
992,000000	16,751993
991,000000	16,687953
990,000000	16,604357
989,000000	16,486038
988,000000	16,330105
987,000000	16,150291
986,000000	15,953495
985,000000	15,740085
984,000000	15,526662
983,000000	15,342808
982,000000	15,202707
981,000000	15,104501
980,000000	15,054599
979,000000	15,066989
978,000000	15,135380
977,000000	15,230618
976,000000	15,327773
975,000000	15,410378
974,000000	15,451429
973,000000	15,417946
972,000000	15,300351
971,000000	15,113605
970,000000	14,873276
969,000000	14,592156
968,000000	14,300349
967,000000	14,041111
966,000000	13,842546
965,000000	13,714434
964,000000	13,669807
963,000000	13,723676
962,000000	13,865009
961,000000	14,057961
960,000000	14,268122
959,000000	14,471753
958,000000	14,642290
957,000000	14,755561
956,000000	14,811738
955,000000	14,829458
954,000000	14,817441
953,000000	14,770405
952,000000	14,693269
951,000000	14,600190
950,000000	14,493436
949,000000	14,364575
948,000000	14,218315
947,000000	14,073167
946,000000	13,938502
945,000000	13,814387
944,000000	13,712447
943,000000	13,653726
942,000000	13,642494
941,000000	13,666254
940,000000	13,718971
939,000000	13,802917
938,000000	13,909155
937,000000	14,018502
936,000000	14,124230
935,000000	14,231309
934,000000	14,333680
933,000000	14,414771
932,000000	14,470447
931,000000	14,508930
930,000000	14,528574
929,000000	14,518479
928,000000	14,480036
927,000000	14,426846
926,000000	14,362026
925,000000	14,276551
924,000000	14,171384
923,000000	14,056511
922,000000	13,930140
921,000000	13,778065
920,000000	13,593430
919,000000	13,377985
918,000000	13,120666
917,000000	12,800364
916,000000	12,409397
915,000000	11,955486
914,000000	11,445272
913,000000	10,885273
912,000000	10,302601
911,000000	9,742145
910,000000	9,243312
909,000000	8,834667
908,000000	8,550366
907,000000	8,424622
906,000000	8,465767
905,000000	8,659531
904,000000	8,987140
903,000000	9,429921
902,000000	9,951913
901,000000	10,502090
900,000000	11,040584
899,000000	11,541345
898,000000	11,978430
897,000000	12,329558
896,000000	12,596975
895,000000	12,801503
894,000000	12,958243
893,000000	13,072040
892,000000	13,154007
891,000000	13,221830
890,000000	13,279088
889,000000	13,317958
888,000000	13,339472
887,000000	13,353887
886,000000	13,361807
885,000000	13,353856
884,000000	13,330135
883,000000	13,300538
882,000000	13,266046
881,000000	13,219616
880,000000	13,165096
879,000000	13,116842
878,000000	13,079808
877,000000	13,047728
876,000000	13,020887
875,000000	13,006850
874,000000	13,003743
873,000000	13,000676
872,000000	12,995957
871,000000	12,996736
870,000000	13,001240
869,000000	12,998375
868,000000	12,985555
867,000000	12,969768
866,000000	12,951151
865,000000	12,922342
864,000000	12,883884
863,000000	12,843947
862,000000	12,802031
861,000000	12,750006
860,000000	12,688138
859,000000	12,624396
858,000000	12,558084
857,000000	12,479920
856,000000	12,388268
855,000000	12,288609
854,000000	12,177009
853,000000	12,040714
852,000000	11,874553
851,000000	11,683702
850,000000	11,470931
849,000000	11,236923
848,000000	10,993362
847,000000	10,759600
846,000000	10,546788
845,000000	10,357801
844,000000	10,202215
843,000000	10,094658
842,000000	10,041016
841,000000	10,038484
840,000000	10,088134
839,000000	10,193590
838,000000	10,345138
837,000000	10,521790
836,000000	10,705492
835,000000	10,882185
834,000000	11,031705
833,000000	11,133546
832,000000	11,183686
831,000000	11,193285
830,000000	11,172201
829,000000	11,125476
828,000000	11,065175
827,000000	11,009261
826,000000	10,969335
825,000000	10,950469
824,000000	10,961416
823,000000	11,010323
822,000000	11,090716
821,000000	11,183928
820,000000	11,275538
819,000000	11,359414
818,000000	11,428346
817,000000	11,475053
816,000000	11,501925
815,000000	11,518276
814,000000	11,527474
813,000000	11,527102
812,000000	11,519165
811,000000	11,508959
810,000000	11,495748
809,000000	11,475031
808,000000	11,448854
807,000000	11,423160
806,000000	11,396609
805,000000	11,362582
804,000000	11,319893
803,000000	11,271701
802,000000	11,215912
801,000000	11,146774
800,000000	11,064724
799,000000	10,974525
798,000000	10,875723
797,000000	10,763950
796,000000	10,639211
795,000000	10,504522
794,000000	10,357802
793,000000	10,194113
792,000000	10,013917
791,000000	9,820761
790,000000	9,614128
789,000000	9,391745
788,000000	9,156438
787,000000	8,913016
786,000000	8,660153
785,000000	8,392681
784,000000	8,107922
783,000000	7,803284
782,000000	7,472005
781,000000	7,107761
780,000000	6,711838
779,000000	6,289500
778,000000	5,843914
777,000000	5,379965
776,000000	4,908926
775,000000	4,443273
774,000000	3,989353
773,000000	3,550897
772,000000	3,135136
771,000000	2,750936
770,000000	2,404652
769,000000	2,101882
768,000000	1,848608
767,000000	1,644279
766,000000	1,479128
765,000000	1,341681
764,000000	1,225711
763,000000	1,127978
762,000000	1,044480
761,000000	0,973816
760,000000	0,918487
759,000000	0,880235
758,000000	0,858343
757,000000	0,853209
756,000000	0,866274
755,000000	0,894367
754,000000	0,929824
753,000000	0,967119
752,000000	1,004206
751,000000	1,038613
750,000000	1,069921
749,000000	1,106612
748,000000	1,165725
747,000000	1,266161
746,000000	1,427288
745,000000	1,668366
744,000000	1,997833
743,000000	2,404349
742,000000	2,864127
741,000000	3,355023
740,000000	3,858204
739,000000	4,355714
738,000000	4,840331
737,000000	5,322519
736,000000	5,815788
735,000000	6,316469
734,000000	6,805272
733,000000	7,259920
732,000000	7,657186
731,000000	7,975565
730,000000	8,211308
729,000000	8,384106
728,000000	8,514213
727,000000	8,605890
726,000000	8,663781
725,000000	8,702835
724,000000	8,721814
723,000000	8,690191
722,000000	8,595513
721,000000	8,484977
720,000000	8,420738
719,000000	8,398273
718,000000	8,344569
717,000000	8,193086
716,000000	7,924692
715,000000	7,537313
714,000000	7,015145
713,000000	6,341222
712,000000	5,516512
711,000000	4,563994
710,000000	3,541122
709,000000	2,551662
708,000000	1,713772
707,000000	1,101289
706,000000	0,718587
705,000000	0,521708
704,000000	0,445496
703,000000	0,422830
702,000000	0,410620
701,000000	0,402537
700,000000	0,403757
699,000000	0,404686
698,000000	0,395535
697,000000	0,386885
696,000000	0,399341
695,000000	0,458136
694,000000	0,620716
693,000000	0,968648
692,000000	1,527704
691,000000	2,218924
690,000000	2,926179
689,000000	3,585786
688,000000	4,175117
687,000000	4,662464
686,000000	5,028056
685,000000	5,303213
684,000000	5,525281
683,000000	5,685031
682,000000	5,772143
681,000000	5,830868
680,000000	5,903475
679,000000	5,965615
678,000000	5,989384
677,000000	6,016789
676,000000	6,086664
675,000000	6,157317
674,000000	6,196299
673,000000	6,238440
672,000000	6,207622
671,000000	5,816404
670,000000	4,938690
669,000000	4,038935
668,000000	3,892346
667,000000	4,736356
666,000000	5,954638
665,000000	6,772202
664,000000	7,015450
663,000000	7,030305
662,000000	7,079242
661,000000	7,131201
660,000000	7,133940
659,000000	7,155117
658,000000	7,228828
657,000000	7,286020
656,000000	7,297564
655,000000	7,324831
654,000000	7,393295
653,000000	7,443557
652,000000	7,444572
651,000000	7,440319
650,000000	7,458974
649,000000	7,476972
648,000000	7,493393
647,000000	7,543406
646,000000	7,616890
645,000000	7,654997
644,000000	7,644253
643,000000	7,632095
642,000000	7,633127
641,000000	7,607075
640,000000	7,541019
639,000000	7,472581
638,000000	7,411828
637,000000	7,322517
636,000000	7,199549
635,000000	7,088637
634,000000	7,008357
633,000000	6,923253
632,000000	6,817048
631,000000	6,720470
630,000000	6,646450
629,000000	6,562806
628,000000	6,456398
627,000000	6,360047
626,000000	6,291669
625,000000	6,222231
624,000000	6,129798
623,000000	6,033547
622,000000	5,950928
621,000000	5,870689
620,000000	5,789584
619,000000	5,732278
618,000000	5,714007
617,000000	5,721779
616,000000	5,741614
615,000000	5,767670
614,000000	5,779607
613,000000	5,755115
612,000000	5,707106
611,000000	5,667072
610,000000	5,632284
609,000000	5,576979
608,000000	5,506602
607,000000	5,443885
606,000000	5,369191
605,000000	5,243873
604,000000	5,098680
603,000000	5,021306
602,000000	5,040855
601,000000	5,087626
600,000000	5,090368
599,000000	5,052714
598,000000	5,008140
597,000000	4,959483
596,000000	4,897823
595,000000	4,834472
594,000000	4,777484
593,000000	4,714870
592,000000	4,646241
591,000000	4,595641
590,000000	4,568851
589,000000	4,536610
588,000000	4,479931
587,000000	4,417165
586,000000	4,365469
585,000000	4,311898
584,000000	4,242758
583,000000	4,167121
582,000000	4,092834
581,000000	4,010509
580,000000	3,917165
579,000000	3,823900
578,000000	3,729614
577,000000	3,619483
576,000000	3,500211
575,000000	3,398630
574,000000	3,316626
573,000000	3,224658
572,000000	3,112115
571,000000	3,003766
570,000000	2,914276
569,000000	2,827801
568,000000	2,735898
567,000000	2,655774
566,000000	2,592761
565,000000	2,525373
564,000000	2,444127
563,000000	2,369133
562,000000	2,310774
561,000000	2,250826
560,000000	2,179014
559,000000	2,112293
558,000000	2,059646
557,000000	2,003628
556,000000	1,935455
555,000000	1,872532
554,000000	1,823601
553,000000	1,769642
552,000000	1,699347
551,000000	1,628819
550,000000	1,568783
549,000000	1,504038
548,000000	1,425384
547,000000	1,349290
546,000000	1,287260
545,000000	1,226392
544,000000	1,158978
543,000000	1,101376
542,000000	1,065066
541,000000	1,039654
540,000000	1,020324
539,000000	1,024694
538,000000	1,062840
537,000000	1,121480
536,000000	1,193240
535,000000	1,291285
534,000000	1,418604
533,000000	1,552749
532,000000	1,679207
531,000000	1,809259
530,000000	1,946291
529,000000	2,065517
528,000000	2,150427
527,000000	2,220673
526,000000	2,301804
525,000000	2,389779
524,000000	2,465690
523,000000	2,522599
522,000000	2,559187
521,000000	2,569191
520,000000	2,557190
519,000000	2,544982
518,000000	2,547005
517,000000	2,557465
516,000000	2,570155
515,000000	2,588936
514,000000	2,608422
513,000000	2,612044
512,000000	2,599858
511,000000	2,591820
510,000000	2,591869
509,000000	2,580262
508,000000	2,552896
507,000000	2,534985
506,000000	2,536863
505,000000	2,530414
504,000000	2,493739
503,000000	2,449090
502,000000	2,430832
501,000000	2,437364
500,000000	2,442751
499,000000	2,435433
498,000000	2,420478
497,000000	2,399176
496,000000	2,369581
495,000000	2,336767
494,000000	2,305059
493,000000	2,270879
492,000000	2,235327
491,000000	2,209331
490,000000	2,194761
489,000000	2,176516
488,000000	2,143929
487,000000	2,104807
486,000000	2,068236
485,000000	2,032380
484,000000	1,998457
483,000000	1,977086
482,000000	1,968644
481,000000	1,956281
480,000000	1,930030
479,000000	1,900422
478,000000	1,878014
477,000000	1,856181
476,000000	1,824681
475,000000	1,783948
474,000000	1,739461
473,000000	1,698625
472,000000	1,676309
471,000000	1,682250
470,000000	1,699470
469,000000	1,698586
468,000000	1,679095
467,000000	1,668477
466,000000	1,675721
465,000000	1,677348
464,000000	1,659848
463,000000	1,642937
462,000000	1,640840
461,000000	1,631812
460,000000	1,591530
459,000000	1,537035
458,000000	1,510637
457,000000	1,530372
456,000000	1,575642
455,000000	1,613133
454,000000	1,624663
453,000000	1,616481
452,000000	1,609868
451,000000	1,617049
450,000000	1,625393
449,000000	1,616371
448,000000	1,594982
447,000000	1,580887
446,000000	1,574725
445,000000	1,558239
444,000000	1,529461
443,000000	1,509649
442,000000	1,509959
441,000000	1,516256
440,000000	1,512960
439,000000	1,499114
438,000000	1,475928
437,000000	1,443597
436,000000	1,414554
435,000000	1,404308
434,000000	1,404548
433,000000	1,391352
432,000000	1,362465
431,000000	1,338874
430,000000	1,326246
429,000000	1,306590
428,000000	1,272458
427,000000	1,236758
426,000000	1,203579
425,000000	1,162547
424,000000	1,117545
423,000000	1,082914
422,000000	1,045067
421,000000	0,971752
420,000000	0,874952
419,000000	0,818149
418,000000	0,837159
417,000000	0,891653
416,000000	0,921144
415,000000	0,914250
414,000000	0,893911
413,000000	0,868853
412,000000	0,835018
411,000000	0,800541
410,000000	0,775256
409,000000	0,750945
408,000000	0,717948
407,000000	0,685507
406,000000	0,664187
405,000000	0,645434
404,000000	0,618492
403,000000	0,589062
402,000000	0,561577
401,000000	0,523527
400,000000	0,468812
399,000000	0,417699
398,000000	0,391703
397,000000	0,385179
396,000000	0,381046
395,000000	0,377394
394,000000	0,378842
393,000000	0,378330
392,000000	0,368172
391,000000	0,354881
390,000000	0,345492
389,000000	0,333130
388,000000	0,311288
387,000000	0,287527
386,000000	0,269629
385,000000	0,253568
384,000000	0,237223
383,000000	0,228491
382,000000	0,228009
381,000000	0,222496
380,000000	0,206518
379,000000	0,191002
378,000000	0,179844
377,000000	0,161472
376,000000	0,134964
375,000000	0,119646
374,000000	0,124315
373,000000	0,130754
372,000000	0,123576
371,000000	0,112703
370,000000	0,109691
369,000000	0,106931
368,000000	0,096981
367,000000	0,089358
366,000000	0,090203
365,000000	0,087600
364,000000	0,074576
363,000000	0,064195
362,000000	0,064838
361,000000	0,063464
360,000000	0,051087
359,000000	0,040406
358,000000	0,041136
357,000000	0,041266
356,000000	0,031414
355,000000	0,022772
354,000000	0,023291
353,000000	0,023337
352,000000	0,014460
351,000000	0,008870
350,000000	0,015316
349,000000	0,020595
348,000000	0,015007
347,000000	0,010346
346,000000	0,015752
345,000000	0,019054
344,000000	0,012427
343,000000	0,007190
342,000000	0,009493
341,000000	0,011585
340,000000	0,002810
339,000000	0,003684
338,000000	0,002727
337,000000	0,007374
336,000000	0,003285
335,000000	0,003149
334,000000	0,002610
333,000000	0,005492
332,000000	0,003210
331,000000	0,007520
330,000000	0,000712
329,000000	0,006405
328,000000	0,002008
327,000000	0,004021
326,000000	0,002244
325,000000	0,004886
324,000000	0,002863
323,000000	0,008233
322,000000	0,001893
321,000000	0,005370
320,000000	0,002256
319,000000	0,004323
318,000000	0,001781
317,000000	0,007069
316,000000	0,019045
315,000000	0,027209
314,000000	0,018747
313,000000	0,006502
312,000000	0,004460
311,000000	0,006441
310,000000	0,001260
309,000000	0,004561
308,000000	0,002370
307,000000	0,005868
306,000000	0,002811
305,000000	0,006223
304,000000	0,001631
303,000000	0,005581
302,000000	0,001086
301,000000	0,003396
300,000000	0,003953
