PE IR       SUBTECH     SPECTRUM    ASCII       PEDS        4.00        
   -1
Praktikum 18.ASC
25/06/17
10:20:18.00
25/06/17
10:20:18.00
Praktikum
Sample 018 By Praktikum date Dienstag, Juni 17 2025
300,000000
#HDR
-1
-1
#GR
cm-1
EGY
1.0
0.0
4000,000000
-1,000000
3701
8
49,798799
0,000226
#DATA
4000,000000	33,383525
3999,000000	33,389347
3998,000000	33,359090
3997,000000	33,319730
3996,000000	33,314382
3995,000000	33,354129
3994,000000	33,402903
3993,000000	33,418448
3992,000000	33,401160
3991,000000	33,393680
3990,000000	33,430118
3989,000000	33,495564
3988,000000	33,544059
3987,000000	33,550542
3986,000000	33,535009
3985,000000	33,535680
3984,000000	33,567095
3983,000000	33,608819
3982,000000	33,632370
3981,000000	33,630358
3980,000000	33,617218
3979,000000	33,606151
3978,000000	33,592362
3977,000000	33,564323
3976,000000	33,528654
3975,000000	33,514839
3974,000000	33,547399
3973,000000	33,615868
3972,000000	33,679269
3971,000000	33,705651
3970,000000	33,705490
3969,000000	33,719711
3968,000000	33,771227
3967,000000	33,832389
3966,000000	33,846816
3965,000000	33,788141
3964,000000	33,696619
3963,000000	33,647452
3962,000000	33,678723
3961,000000	33,755505
3960,000000	33,811356
3959,000000	33,819062
3958,000000	33,811649
3957,000000	33,833089
3956,000000	33,880135
3955,000000	33,901159
3954,000000	33,845096
3953,000000	33,703992
3952,000000	33,515225
3951,000000	33,339329
3950,000000	33,236514
3949,000000	33,243235
3948,000000	33,340167
3947,000000	33,439303
3946,000000	33,438767
3945,000000	33,321228
3944,000000	33,198366
3943,000000	33,225839
3942,000000	33,454750
3941,000000	33,784677
3940,000000	34,065584
3939,000000	34,216302
3938,000000	34,229625
3937,000000	34,101469
3936,000000	33,817528
3935,000000	33,422151
3934,000000	33,050693
3933,000000	32,861525
3932,000000	32,932367
3931,000000	33,216627
3930,000000	33,566697
3929,000000	33,793650
3928,000000	33,771331
3927,000000	33,541141
3926,000000	33,301316
3925,000000	33,245172
3924,000000	33,379078
3923,000000	33,519129
3922,000000	33,467545
3921,000000	33,182445
3920,000000	32,801618
3919,000000	32,542182
3918,000000	32,580198
3917,000000	32,953468
3916,000000	33,532408
3915,000000	34,098689
3914,000000	34,490621
3913,000000	34,694793
3912,000000	34,788598
3911,000000	34,804992
3910,000000	34,666329
3909,000000	34,236219
3908,000000	33,428753
3907,000000	32,305654
3906,000000	31,105518
3905,000000	30,149319
3904,000000	29,647352
3903,000000	29,582793
3902,000000	29,810260
3901,000000	30,257608
3900,000000	30,979222
3899,000000	31,982595
3898,000000	33,070623
3897,000000	33,896182
3896,000000	34,158367
3895,000000	33,764359
3894,000000	32,915839
3893,000000	32,102487
3892,000000	31,859769
3891,000000	32,308825
3890,000000	32,915159
3889,000000	32,931990
3888,000000	32,171119
3887,000000	31,263745
3886,000000	31,001360
3885,000000	31,494553
3884,000000	32,115769
3883,000000	32,255210
3882,000000	31,991546
3881,000000	31,941140
3880,000000	32,508601
3879,000000	33,408075
3878,000000	33,948770
3877,000000	33,749742
3876,000000	33,085798
3875,000000	32,462282
3874,000000	31,986058
3873,000000	31,347691
3872,000000	30,452871
3871,000000	29,795857
3870,000000	29,950737
3869,000000	30,806348
3868,000000	31,598852
3867,000000	31,737787
3866,000000	31,396751
3865,000000	31,204958
3864,000000	31,538420
3863,000000	32,282465
3862,000000	33,112599
3861,000000	33,779274
3860,000000	34,074563
3859,000000	33,693163
3858,000000	32,295599
3857,000000	29,823512
3856,000000	26,846425
3855,000000	24,532374
3854,000000	24,023034
3853,000000	25,613720
3852,000000	28,514783
3851,000000	31,460005
3850,000000	33,576488
3849,000000	34,687060
3848,000000	35,000527
3847,000000	34,747487
3846,000000	34,138669
3845,000000	33,419462
3844,000000	32,774361
3843,000000	32,182778
3842,000000	31,463496
3841,000000	30,512310
3840,000000	29,510990
3839,000000	28,880979
3838,000000	28,989633
3837,000000	29,825591
3836,000000	30,963373
3835,000000	31,892879
3834,000000	32,418529
3833,000000	32,741748
3832,000000	33,158307
3831,000000	33,719595
3830,000000	34,195683
3829,000000	34,367981
3828,000000	34,290308
3827,000000	34,174420
3826,000000	33,999213
3825,000000	33,384603
3824,000000	32,071263
3823,000000	30,502025
3822,000000	29,629464
3821,000000	29,950992
3820,000000	30,869949
3819,000000	31,324222
3818,000000	30,988371
3817,000000	30,625363
3816,000000	31,169358
3815,000000	32,699112
3814,000000	34,468704
3813,000000	35,688906
3812,000000	36,038615
3811,000000	35,532814
3810,000000	34,347881
3809,000000	32,944371
3808,000000	32,046393
3807,000000	32,080158
3806,000000	32,600092
3805,000000	32,608451
3804,000000	31,638784
3803,000000	30,384109
3802,000000	30,012549
3801,000000	30,913370
3800,000000	32,359698
3799,000000	33,393550
3798,000000	33,810759
3797,000000	34,102709
3796,000000	34,688389
3795,000000	35,472340
3794,000000	36,114603
3793,000000	36,460978
3792,000000	36,601720
3791,000000	36,661515
3790,000000	36,659880
3789,000000	36,546534
3788,000000	36,304899
3787,000000	36,025699
3786,000000	35,865537
3785,000000	35,890137
3784,000000	35,945380
3783,000000	35,771745
3782,000000	35,304019
3781,000000	34,816258
3780,000000	34,703306
3779,000000	35,106042
3778,000000	35,794935
3777,000000	36,411348
3776,000000	36,753184
3775,000000	36,782521
3774,000000	36,447569
3773,000000	35,688368
3772,000000	34,690359
3771,000000	33,945343
3770,000000	33,837896
3769,000000	34,217729
3768,000000	34,589147
3767,000000	34,736807
3766,000000	34,916165
3765,000000	35,347608
3764,000000	35,764219
3763,000000	35,699708
3762,000000	35,075979
3761,000000	34,305996
3760,000000	33,871190
3759,000000	33,948432
3758,000000	34,345033
3757,000000	34,581879
3756,000000	34,101157
3755,000000	32,661125
3754,000000	30,600351
3753,000000	28,637300
3752,000000	27,425067
3751,000000	27,294727
3750,000000	28,141204
3749,000000	29,276126
3748,000000	29,635405
3747,000000	28,678263
3746,000000	27,189845
3745,000000	26,762884
3744,000000	28,222423
3743,000000	30,807728
3742,000000	33,004151
3741,000000	33,854504
3740,000000	33,342619
3739,000000	31,938212
3738,000000	30,256003
3737,000000	28,966706
3736,000000	28,511010
3735,000000	28,806238
3734,000000	29,487885
3733,000000	30,420541
3732,000000	31,681236
3731,000000	33,067955
3730,000000	33,997582
3729,000000	34,092580
3728,000000	33,629123
3727,000000	33,215704
3726,000000	33,164468
3725,000000	33,345461
3724,000000	33,552016
3723,000000	33,786057
3722,000000	34,164580
3721,000000	34,714553
3720,000000	35,341845
3719,000000	35,924646
3718,000000	36,328383
3717,000000	36,334689
3716,000000	35,683547
3715,000000	34,325085
3714,000000	32,640085
3713,000000	31,310002
3712,000000	30,881675
3711,000000	31,430376
3710,000000	32,629194
3709,000000	34,035517
3708,000000	35,267171
3707,000000	36,035368
3706,000000	36,176089
3705,000000	35,751044
3704,000000	35,073668
3703,000000	34,583682
3702,000000	34,611853
3701,000000	35,159035
3700,000000	35,900323
3699,000000	36,464033
3698,000000	36,728617
3697,000000	36,790295
3696,000000	36,673266
3695,000000	36,219185
3694,000000	35,303467
3693,000000	34,012929
3692,000000	32,570804
3691,000000	31,272664
3690,000000	30,568781
3689,000000	30,956759
3688,000000	32,510969
3687,000000	34,604130
3686,000000	36,344276
3685,000000	37,267137
3684,000000	37,490746
3683,000000	37,320514
3682,000000	36,934013
3681,000000	36,347411
3680,000000	35,399256
3679,000000	33,816560
3678,000000	31,684413
3677,000000	29,848053
3676,000000	29,405696
3675,000000	30,500202
3674,000000	31,942858
3673,000000	32,399985
3672,000000	31,800064
3671,000000	31,300037
3670,000000	31,942169
3669,000000	33,667103
3668,000000	35,637513
3667,000000	37,141795
3666,000000	38,006905
3665,000000	38,390553
3664,000000	38,486667
3663,000000	38,444683
3662,000000	38,343139
3661,000000	38,109764
3660,000000	37,541293
3659,000000	36,553935
3658,000000	35,471303
3657,000000	34,904064
3656,000000	35,148066
3655,000000	35,700579
3654,000000	35,553694
3653,000000	34,140268
3652,000000	31,917508
3651,000000	29,987248
3650,000000	29,234854
3649,000000	29,857642
3648,000000	31,519260
3647,000000	33,647104
3646,000000	35,612751
3645,000000	36,954407
3644,000000	37,612113
3643,000000	37,863788
3642,000000	37,976397
3641,000000	38,004336
3640,000000	37,936780
3639,000000	37,844625
3638,000000	37,756257
3637,000000	37,553587
3636,000000	37,158685
3635,000000	36,682236
3634,000000	36,155406
3633,000000	35,235442
3632,000000	33,542758
3631,000000	31,404707
3630,000000	29,945688
3629,000000	30,171732
3628,000000	32,005162
3627,000000	34,387763
3626,000000	36,225366
3625,000000	37,076602
3624,000000	37,026248
3623,000000	36,292565
3622,000000	35,153354
3621,000000	34,065672
3620,000000	33,546724
3619,000000	33,817473
3618,000000	34,600145
3617,000000	35,332098
3616,000000	35,611332
3615,000000	35,458302
3614,000000	35,173496
3613,000000	34,973951
3612,000000	34,815263
3611,000000	34,585443
3610,000000	34,393205
3609,000000	34,537119
3608,000000	35,172123
3607,000000	36,106659
3606,000000	36,961101
3605,000000	37,460185
3604,000000	37,544910
3603,000000	37,320421
3602,000000	36,994857
3601,000000	36,793698
3600,000000	36,797947
3599,000000	36,862376
3598,000000	36,773647
3597,000000	36,504551
3596,000000	36,271964
3595,000000	36,324989
3594,000000	36,684844
3593,000000	37,061310
3592,000000	37,021435
3591,000000	36,323646
3590,000000	35,203213
3589,000000	34,297391
3588,000000	34,180872
3587,000000	34,919792
3586,000000	36,086286
3585,000000	37,166612
3584,000000	37,899196
3583,000000	38,288075
3582,000000	38,438448
3581,000000	38,456341
3580,000000	38,433797
3579,000000	38,438007
3578,000000	38,491118
3577,000000	38,572325
3576,000000	38,643230
3575,000000	38,678512
3574,000000	38,675977
3573,000000	38,601580
3572,000000	38,307914
3571,000000	37,590273
3570,000000	36,442938
3569,000000	35,259522
3568,000000	34,640208
3567,000000	34,916273
3566,000000	35,870526
3565,000000	36,951006
3564,000000	37,718697
3563,000000	38,099239
3562,000000	38,277961
3561,000000	38,450636
3560,000000	38,669315
3559,000000	38,864808
3558,000000	38,959193
3557,000000	38,935190
3556,000000	38,813484
3555,000000	38,615438
3554,000000	38,392435
3553,000000	38,255229
3552,000000	38,288800
3551,000000	38,420900
3550,000000	38,442830
3549,000000	38,212214
3548,000000	37,816048
3547,000000	37,509695
3546,000000	37,507636
3545,000000	37,834357
3544,000000	38,333273
3543,000000	38,786659
3542,000000	39,054657
3541,000000	39,136709
3540,000000	39,115906
3539,000000	39,056391
3538,000000	38,978636
3537,000000	38,912401
3536,000000	38,912329
3535,000000	38,994323
3534,000000	39,091201
3533,000000	39,100200
3532,000000	38,964045
3531,000000	38,709307
3530,000000	38,435617
3529,000000	38,264350
3528,000000	38,245617
3527,000000	38,298658
3526,000000	38,296672
3525,000000	38,231953
3524,000000	38,245401
3523,000000	38,448885
3522,000000	38,767562
3521,000000	39,014845
3520,000000	39,101389
3519,000000	39,103503
3518,000000	39,135988
3517,000000	39,216522
3516,000000	39,272549
3515,000000	39,236255
3514,000000	39,107132
3513,000000	38,940693
3512,000000	38,803766
3511,000000	38,737474
3510,000000	38,746716
3509,000000	38,806435
3508,000000	38,865620
3507,000000	38,856968
3506,000000	38,737073
3505,000000	38,539858
3504,000000	38,379695
3503,000000	38,375033
3502,000000	38,555487
3501,000000	38,832219
3500,000000	39,056560
3499,000000	39,121061
3498,000000	39,039489
3497,000000	38,937773
3496,000000	38,942129
3495,000000	39,061096
3494,000000	39,185845
3493,000000	39,213192
3492,000000	39,143976
3491,000000	39,056349
3490,000000	39,011706
3489,000000	39,011270
3488,000000	39,021329
3487,000000	39,011222
3486,000000	38,971236
3485,000000	38,913431
3484,000000	38,858432
3483,000000	38,818507
3482,000000	38,803382
3481,000000	38,839628
3480,000000	38,953121
3479,000000	39,114660
3478,000000	39,232868
3477,000000	39,235412
3476,000000	39,151708
3475,000000	39,087756
3474,000000	39,117319
3473,000000	39,213491
3472,000000	39,284170
3471,000000	39,265047
3470,000000	39,179444
3469,000000	39,115513
3468,000000	39,137284
3467,000000	39,212786
3466,000000	39,246596
3465,000000	39,192140
3464,000000	39,112316
3463,000000	39,107171
3462,000000	39,196899
3461,000000	39,304250
3460,000000	39,349365
3459,000000	39,335913
3458,000000	39,331935
3457,000000	39,382396
3456,000000	39,456272
3455,000000	39,485807
3454,000000	39,453093
3453,000000	39,414850
3452,000000	39,421549
3451,000000	39,426515
3450,000000	39,326029
3449,000000	39,107496
3448,000000	38,911573
3447,000000	38,898137
3446,000000	39,066358
3445,000000	39,258945
3444,000000	39,341052
3443,000000	39,331769
3442,000000	39,345175
3441,000000	39,441992
3440,000000	39,571840
3439,000000	39,643307
3438,000000	39,623706
3437,000000	39,567987
3436,000000	39,559880
3435,000000	39,626585
3434,000000	39,710866
3433,000000	39,736408
3432,000000	39,699277
3431,000000	39,675706
3430,000000	39,731902
3429,000000	39,842654
3428,000000	39,919336
3427,000000	39,911170
3426,000000	39,854660
3425,000000	39,818974
3424,000000	39,821747
3423,000000	39,819784
3422,000000	39,781246
3421,000000	39,744714
3420,000000	39,786983
3419,000000	39,930934
3418,000000	40,101809
3417,000000	40,192146
3416,000000	40,169276
3415,000000	40,107266
3414,000000	40,106452
3413,000000	40,187833
3412,000000	40,277669
3411,000000	40,295213
3410,000000	40,243565
3409,000000	40,203109
3408,000000	40,236375
3407,000000	40,313641
3406,000000	40,347240
3405,000000	40,295954
3404,000000	40,217766
3403,000000	40,205592
3402,000000	40,277933
3401,000000	40,355686
3400,000000	40,355456
3399,000000	40,290530
3398,000000	40,256028
3397,000000	40,311868
3396,000000	40,405395
3395,000000	40,433919
3394,000000	40,375355
3393,000000	40,324863
3392,000000	40,386737
3391,000000	40,548583
3390,000000	40,689096
3389,000000	40,709261
3388,000000	40,632637
3387,000000	40,569330
3386,000000	40,595951
3385,000000	40,685840
3384,000000	40,754310
3383,000000	40,757751
3382,000000	40,737139
3381,000000	40,762550
3380,000000	40,843342
3379,000000	40,910914
3378,000000	40,901358
3377,000000	40,839946
3376,000000	40,818419
3375,000000	40,885697
3374,000000	40,984778
3373,000000	41,016160
3372,000000	40,952572
3371,000000	40,866988
3370,000000	40,844739
3369,000000	40,888473
3368,000000	40,925199
3367,000000	40,901401
3366,000000	40,851365
3365,000000	40,857049
3364,000000	40,946961
3363,000000	41,055743
3362,000000	41,095455
3361,000000	41,055797
3360,000000	41,012827
3359,000000	41,037352
3358,000000	41,114379
3357,000000	41,167607
3356,000000	41,154558
3355,000000	41,116094
3354,000000	41,126368
3353,000000	41,205134
3352,000000	41,291882
3351,000000	41,311850
3350,000000	41,261891
3349,000000	41,218426
3348,000000	41,252583
3347,000000	41,346025
3346,000000	41,409012
3345,000000	41,385536
3344,000000	41,321239
3343,000000	41,309122
3342,000000	41,375925
3341,000000	41,446514
3340,000000	41,431383
3339,000000	41,335163
3338,000000	41,258358
3337,000000	41,288498
3336,000000	41,404727
3335,000000	41,503955
3334,000000	41,517264
3333,000000	41,481332
3332,000000	41,483446
3331,000000	41,549789
3330,000000	41,612210
3329,000000	41,593942
3328,000000	41,510118
3327,000000	41,458372
3326,000000	41,508416
3325,000000	41,621520
3324,000000	41,694859
3323,000000	41,677908
3322,000000	41,624712
3321,000000	41,625015
3320,000000	41,697652
3319,000000	41,770320
3318,000000	41,767840
3317,000000	41,702011
3316,000000	41,658023
3315,000000	41,695048
3314,000000	41,775522
3313,000000	41,805421
3312,000000	41,743005
3311,000000	41,652015
3310,000000	41,634294
3309,000000	41,715108
3308,000000	41,815396
3307,000000	41,845586
3306,000000	41,811070
3305,000000	41,801528
3304,000000	41,874977
3303,000000	41,981144
3302,000000	42,019721
3301,000000	41,960997
3300,000000	41,882978
3299,000000	41,882608
3298,000000	41,965626
3297,000000	42,041942
3296,000000	42,030045
3295,000000	41,949965
3294,000000	41,899575
3293,000000	41,941994
3292,000000	42,032857
3291,000000	42,075316
3290,000000	42,040781
3289,000000	42,004330
3288,000000	42,049716
3287,000000	42,160825
3286,000000	42,235009
3285,000000	42,206210
3284,000000	42,125108
3283,000000	42,098438
3282,000000	42,164272
3281,000000	42,249581
3280,000000	42,256197
3279,000000	42,174364
3278,000000	42,092589
3277,000000	42,096115
3276,000000	42,172477
3275,000000	42,231016
3274,000000	42,213966
3273,000000	42,167579
3272,000000	42,185695
3271,000000	42,293102
3270,000000	42,409279
3269,000000	42,438041
3268,000000	42,379667
3267,000000	42,330536
3266,000000	42,369955
3265,000000	42,468768
3264,000000	42,524496
3263,000000	42,483202
3262,000000	42,404657
3261,000000	42,391854
3260,000000	42,469980
3259,000000	42,555093
3258,000000	42,551603
3257,000000	42,467206
3256,000000	42,406225
3255,000000	42,451117
3254,000000	42,568002
3253,000000	42,646240
3252,000000	42,629108
3251,000000	42,575799
3250,000000	42,582886
3249,000000	42,659957
3248,000000	42,713180
3247,000000	42,665509
3246,000000	42,561421
3245,000000	42,524407
3244,000000	42,613358
3243,000000	42,750385
3242,000000	42,811079
3241,000000	42,763654
3240,000000	42,697161
3239,000000	42,712614
3238,000000	42,807169
3237,000000	42,883844
3236,000000	42,865084
3235,000000	42,782448
3234,000000	42,741201
3233,000000	42,799120
3232,000000	42,899419
3231,000000	42,935786
3230,000000	42,880742
3229,000000	42,821806
3228,000000	42,857501
3227,000000	42,976591
3226,000000	43,066962
3225,000000	43,047679
3224,000000	42,960458
3223,000000	42,915611
3222,000000	42,961973
3221,000000	43,038899
3220,000000	43,059092
3219,000000	43,013012
3218,000000	42,974240
3217,000000	43,005981
3216,000000	43,085984
3215,000000	43,132742
3214,000000	43,101730
3213,000000	43,039958
3212,000000	43,035641
3211,000000	43,118839
3210,000000	43,222699
3209,000000	43,258247
3208,000000	43,217494
3207,000000	43,185026
3206,000000	43,236339
3205,000000	43,342160
3204,000000	43,399244
3203,000000	43,353663
3202,000000	43,267613
3201,000000	43,244364
3200,000000	43,306788
3199,000000	43,375155
3198,000000	43,370873
3197,000000	43,314070
3196,000000	43,300424
3195,000000	43,384374
3194,000000	43,509459
3193,000000	43,567536
3192,000000	43,522033
3191,000000	43,452729
3190,000000	43,463351
3189,000000	43,558085
3188,000000	43,632799
3187,000000	43,600918
3186,000000	43,502168
3185,000000	43,462438
3184,000000	43,545195
3183,000000	43,674333
3182,000000	43,717113
3181,000000	43,635733
3180,000000	43,529157
3179,000000	43,523087
3178,000000	43,630548
3177,000000	43,742502
3176,000000	43,756832
3175,000000	43,696202
3174,000000	43,674614
3173,000000	43,753833
3172,000000	43,864378
3171,000000	43,891446
3170,000000	43,817980
3169,000000	43,747546
3168,000000	43,779203
3167,000000	43,889694
3166,000000	43,964270
3165,000000	43,934554
3164,000000	43,857388
3163,000000	43,846145
3162,000000	43,936626
3161,000000	44,043918
3160,000000	44,059999
3159,000000	43,981929
3158,000000	43,918060
3157,000000	43,960851
3156,000000	44,074848
3155,000000	44,138570
3154,000000	44,090837
3153,000000	44,005683
3152,000000	44,002491
3151,000000	44,104216
3150,000000	44,210331
3149,000000	44,216931
3148,000000	44,137534
3147,000000	44,085909
3146,000000	44,141084
3145,000000	44,254952
3144,000000	44,308324
3143,000000	44,253649
3142,000000	44,172615
3141,000000	44,179751
3140,000000	44,285263
3139,000000	44,382504
3138,000000	44,373867
3137,000000	44,281888
3136,000000	44,217985
3135,000000	44,252092
3134,000000	44,339408
3133,000000	44,381977
3132,000000	44,347323
3131,000000	44,303166
3130,000000	44,332779
3129,000000	44,429364
3128,000000	44,496988
3127,000000	44,461756
3126,000000	44,363550
3125,000000	44,315915
3124,000000	44,375394
3123,000000	44,475775
3122,000000	44,505679
3121,000000	44,440586
3120,000000	44,370548
3119,000000	44,391654
3118,000000	44,490900
3117,000000	44,562035
3116,000000	44,536526
3115,000000	44,470982
3114,000000	44,481112
3113,000000	44,597415
3112,000000	44,720198
3111,000000	44,734519
3110,000000	44,648798
3109,000000	44,587122
3108,000000	44,642355
3107,000000	44,767302
3106,000000	44,829443
3105,000000	44,763257
3104,000000	44,644122
3103,000000	44,603112
3102,000000	44,682916
3101,000000	44,793783
3100,000000	44,818931
3099,000000	44,749165
3098,000000	44,691598
3097,000000	44,740906
3096,000000	44,865156
3095,000000	44,946006
3094,000000	44,924613
3093,000000	44,872924
3092,000000	44,900726
3091,000000	45,014938
3090,000000	45,106214
3089,000000	45,081542
3088,000000	44,981217
3087,000000	44,935407
3086,000000	45,010099
3085,000000	45,125147
3084,000000	45,146528
3083,000000	45,046058
3082,000000	44,937352
3081,000000	44,944151
3080,000000	45,058138
3079,000000	45,155557
3078,000000	45,148136
3077,000000	45,083782
3076,000000	45,080761
3075,000000	45,180568
3074,000000	45,295525
3073,000000	45,310840
3072,000000	45,218564
3071,000000	45,127269
3070,000000	45,133715
3069,000000	45,207706
3068,000000	45,229939
3067,000000	45,143108
3066,000000	45,033117
3065,000000	45,034088
3064,000000	45,167916
3063,000000	45,312285
3062,000000	45,338559
3061,000000	45,253726
3060,000000	45,181230
3059,000000	45,212811
3058,000000	45,308441
3057,000000	45,356407
3056,000000	45,314021
3055,000000	45,260402
3054,000000	45,298949
3053,000000	45,424277
3052,000000	45,516449
3051,000000	45,479320
3050,000000	45,362297
3049,000000	45,311469
3048,000000	45,401614
3047,000000	45,546562
3046,000000	45,599921
3045,000000	45,525721
3044,000000	45,435896
3043,000000	45,453812
3042,000000	45,569345
3041,000000	45,654592
3040,000000	45,616605
3039,000000	45,505344
3038,000000	45,451501
3037,000000	45,510161
3036,000000	45,593943
3035,000000	45,576240
3034,000000	45,445379
3033,000000	45,328679
3032,000000	45,351676
3031,000000	45,492710
3030,000000	45,604048
3029,000000	45,579041
3028,000000	45,471266
3027,000000	45,423535
3026,000000	45,492340
3025,000000	45,580151
3024,000000	45,560169
3023,000000	45,437193
3022,000000	45,342964
3021,000000	45,372124
3020,000000	45,466423
3019,000000	45,489190
3018,000000	45,396243
3017,000000	45,291406
3016,000000	45,304196
3015,000000	45,438248
3014,000000	45,569967
3013,000000	45,594679
3012,000000	45,549060
3011,000000	45,565418
3010,000000	45,710759
3009,000000	45,896541
3008,000000	45,973523
3007,000000	45,905206
3006,000000	45,814201
3005,000000	45,840331
3004,000000	45,978672
3003,000000	46,090070
3002,000000	46,070738
3001,000000	45,973405
3000,000000	45,939625
2999,000000	46,027092
2998,000000	46,140367
2997,000000	46,145513
2996,000000	46,033613
2995,000000	45,936652
2994,000000	45,973246
2993,000000	46,105947
2992,000000	46,183012
2991,000000	46,118408
2990,000000	45,993732
2989,000000	45,958470
2988,000000	46,050953
2987,000000	46,155617
2986,000000	46,143316
2985,000000	46,024746
2984,000000	45,932895
2983,000000	45,961722
2982,000000	46,053172
2981,000000	46,067074
2980,000000	45,951763
2979,000000	45,808598
2978,000000	45,770663
2977,000000	45,840049
2976,000000	45,882623
2975,000000	45,789711
2974,000000	45,608663
2973,000000	45,483561
2972,000000	45,482110
2971,000000	45,515944
2970,000000	45,448406
2969,000000	45,257012
2968,000000	45,061012
2967,000000	44,985107
2966,000000	45,015630
2965,000000	45,020039
2964,000000	44,906333
2963,000000	44,736195
2962,000000	44,652580
2961,000000	44,705193
2960,000000	44,789170
2959,000000	44,771261
2958,000000	44,650865
2957,000000	44,557642
2956,000000	44,593004
2955,000000	44,709591
2954,000000	44,767983
2953,000000	44,700921
2952,000000	44,589542
2951,000000	44,565613
2950,000000	44,652358
2949,000000	44,732134
2948,000000	44,683947
2947,000000	44,529110
2946,000000	44,407676
2945,000000	44,407647
2944,000000	44,457665
2943,000000	44,413691
2942,000000	44,234548
2941,000000	44,030523
2940,000000	43,930915
2939,000000	43,934583
2938,000000	43,917022
2937,000000	43,782818
2936,000000	43,580039
2935,000000	43,445515
2934,000000	43,441709
2933,000000	43,478843
2932,000000	43,418797
2931,000000	43,241354
2930,000000	43,070505
2929,000000	43,025981
2928,000000	43,082198
2927,000000	43,106662
2926,000000	43,027989
2925,000000	42,925664
2924,000000	42,937991
2923,000000	43,099455
2922,000000	43,301749
2921,000000	43,417731
2920,000000	43,448172
2919,000000	43,517386
2918,000000	43,721578
2917,000000	44,006289
2916,000000	44,225289
2915,000000	44,314395
2914,000000	44,369119
2913,000000	44,524207
2912,000000	44,784789
2911,000000	45,016161
2910,000000	45,104416
2909,000000	45,092182
2908,000000	45,126611
2907,000000	45,285693
2906,000000	45,488195
2905,000000	45,591274
2904,000000	45,562749
2903,000000	45,522915
2902,000000	45,603038
2901,000000	45,785432
2900,000000	45,922079
2899,000000	45,915190
2898,000000	45,837776
2897,000000	45,844880
2896,000000	45,985718
2895,000000	46,145550
2894,000000	46,186759
2893,000000	46,111913
2892,000000	46,059463
2891,000000	46,138348
2890,000000	46,298669
2889,000000	46,388363
2888,000000	46,334201
2887,000000	46,230841
2886,000000	46,229837
2885,000000	46,353545
2884,000000	46,465946
2883,000000	46,437423
2882,000000	46,304167
2881,000000	46,222968
2880,000000	46,279382
2879,000000	46,386466
2878,000000	46,390771
2877,000000	46,255663
2876,000000	46,102720
2875,000000	46,067444
2874,000000	46,138293
2873,000000	46,169813
2872,000000	46,054358
2871,000000	45,853528
2870,000000	45,724044
2869,000000	45,725815
2868,000000	45,747256
2867,000000	45,642263
2866,000000	45,412185
2865,000000	45,205490
2864,000000	45,143890
2863,000000	45,184061
2862,000000	45,179620
2861,000000	45,061534
2860,000000	44,920759
2859,000000	44,901513
2858,000000	45,026723
2857,000000	45,165167
2856,000000	45,183204
2855,000000	45,103849
2854,000000	45,079315
2853,000000	45,204649
2852,000000	45,402565
2851,000000	45,522383
2850,000000	45,529981
2849,000000	45,551308
2848,000000	45,719044
2847,000000	46,009726
2846,000000	46,264801
2845,000000	46,370189
2844,000000	46,382875
2843,000000	46,459889
2842,000000	46,668604
2841,000000	46,901545
2840,000000	47,004313
2839,000000	46,965398
2838,000000	46,935808
2837,000000	47,046348
2836,000000	47,247149
2835,000000	47,370686
2834,000000	47,337219
2833,000000	47,251289
2832,000000	47,274280
2831,000000	47,431883
2830,000000	47,586199
2829,000000	47,600168
2828,000000	47,501332
2827,000000	47,450909
2826,000000	47,551488
2825,000000	47,720709
2824,000000	47,788207
2823,000000	47,704215
2822,000000	47,602440
2821,000000	47,637029
2820,000000	47,793084
2819,000000	47,907071
2818,000000	47,867577
2817,000000	47,746961
2816,000000	47,712402
2815,000000	47,825236
2814,000000	47,969517
2813,000000	47,990442
2812,000000	47,878006
2811,000000	47,782710
2810,000000	47,836155
2809,000000	47,988995
2808,000000	48,067430
2807,000000	47,985759
2806,000000	47,853500
2805,000000	47,841415
2804,000000	47,971752
2803,000000	48,092885
2802,000000	48,066084
2801,000000	47,931394
2800,000000	47,856999
2799,000000	47,938057
2798,000000	48,085410
2797,000000	48,130555
2796,000000	48,027349
2795,000000	47,909962
2794,000000	47,933212
2793,000000	48,083665
2792,000000	48,192440
2791,000000	48,142106
2790,000000	48,012337
2789,000000	47,981930
2788,000000	48,108996
2787,000000	48,262224
2786,000000	48,281966
2785,000000	48,171352
2784,000000	48,088608
2783,000000	48,158315
2782,000000	48,322115
2781,000000	48,407086
2780,000000	48,331949
2779,000000	48,207964
2778,000000	48,207203
2777,000000	48,351777
2776,000000	48,483154
2775,000000	48,456474
2774,000000	48,319090
2773,000000	48,252970
2772,000000	48,350985
2771,000000	48,506609
2770,000000	48,545492
2769,000000	48,434872
2768,000000	48,320245
2767,000000	48,351284
2766,000000	48,502737
2765,000000	48,603369
2764,000000	48,540252
2763,000000	48,398907
2762,000000	48,362010
2761,000000	48,485741
2760,000000	48,628208
2759,000000	48,624002
2758,000000	48,487902
2757,000000	48,395062
2756,000000	48,465485
2755,000000	48,621363
2754,000000	48,684005
2753,000000	48,588121
2752,000000	48,458058
2751,000000	48,459059
2750,000000	48,600008
2749,000000	48,719130
2748,000000	48,677826
2747,000000	48,531357
2746,000000	48,466084
2745,000000	48,570913
2744,000000	48,725595
2743,000000	48,748611
2742,000000	48,620725
2741,000000	48,506247
2740,000000	48,550580
2739,000000	48,705888
2738,000000	48,792091
2737,000000	48,714043
2736,000000	48,573688
2735,000000	48,548839
2734,000000	48,679737
2733,000000	48,817453
2732,000000	48,801971
2731,000000	48,658862
2730,000000	48,571845
2729,000000	48,656760
2728,000000	48,818020
2727,000000	48,866835
2726,000000	48,753516
2725,000000	48,625539
2724,000000	48,644804
2723,000000	48,793950
2722,000000	48,900296
2721,000000	48,843376
2720,000000	48,698859
2719,000000	48,649052
2718,000000	48,764910
2717,000000	48,916367
2716,000000	48,926960
2715,000000	48,791133
2714,000000	48,683812
2713,000000	48,745449
2712,000000	48,907543
2711,000000	48,978842
2710,000000	48,881552
2709,000000	48,742931
2708,000000	48,737536
2707,000000	48,877291
2706,000000	49,000199
2705,000000	48,964899
2704,000000	48,819487
2703,000000	48,746985
2702,000000	48,846298
2701,000000	49,008277
2700,000000	49,044496
2699,000000	48,919456
2698,000000	48,798184
2697,000000	48,842718
2696,000000	49,010159
2695,000000	49,106857
2694,000000	49,028237
2693,000000	48,883415
2692,000000	48,858812
2691,000000	48,993374
2690,000000	49,134622
2689,000000	49,122298
2688,000000	48,979714
2687,000000	48,888426
2686,000000	48,970805
2685,000000	49,138045
2684,000000	49,193574
2683,000000	49,075269
2682,000000	48,935275
2681,000000	48,952888
2680,000000	49,112403
2679,000000	49,224035
2678,000000	49,159166
2677,000000	49,004860
2676,000000	48,954279
2675,000000	49,073244
2674,000000	49,224015
2673,000000	49,230635
2672,000000	49,089938
2671,000000	48,977654
2670,000000	49,037489
2669,000000	49,203223
2668,000000	49,276510
2667,000000	49,171382
2666,000000	49,023163
2665,000000	49,020721
2664,000000	49,172069
2663,000000	49,296556
2662,000000	49,248772
2661,000000	49,094031
2660,000000	49,025126
2659,000000	49,129943
2658,000000	49,287716
2657,000000	49,313455
2656,000000	49,179967
2655,000000	49,053996
2654,000000	49,096856
2653,000000	49,265032
2652,000000	49,359103
2651,000000	49,270015
2650,000000	49,116074
2649,000000	49,095812
2648,000000	49,241512
2647,000000	49,381648
2646,000000	49,354161
2645,000000	49,201777
2644,000000	49,116831
2643,000000	49,209128
2642,000000	49,375057
2641,000000	49,421121
2640,000000	49,296723
2639,000000	49,158476
2638,000000	49,183365
2637,000000	49,349208
2636,000000	49,457964
2635,000000	49,380706
2634,000000	49,219959
2633,000000	49,181777
2632,000000	49,318852
2631,000000	49,468578
2630,000000	49,455206
2629,000000	49,302386
2628,000000	49,200461
2627,000000	49,275955
2626,000000	49,441220
2625,000000	49,499477
2624,000000	49,381578
2623,000000	49,234393
2622,000000	49,245246
2621,000000	49,409455
2620,000000	49,531526
2619,000000	49,466104
2618,000000	49,300459
2617,000000	49,245101
2616,000000	49,371747
2615,000000	49,527849
2614,000000	49,527472
2613,000000	49,376693
2612,000000	49,262007
2611,000000	49,325070
2610,000000	49,493239
2609,000000	49,566182
2608,000000	49,457180
2607,000000	49,301351
2606,000000	49,294789
2605,000000	49,450865
2604,000000	49,579204
2603,000000	49,521744
2602,000000	49,350317
2601,000000	49,277303
2600,000000	49,390507
2599,000000	49,548015
2598,000000	49,556777
2597,000000	49,406489
2596,000000	49,279207
2595,000000	49,328266
2594,000000	49,494538
2593,000000	49,576561
2592,000000	49,472979
2591,000000	49,310448
2590,000000	49,292388
2589,000000	49,446939
2588,000000	49,587949
2587,000000	49,545529
2586,000000	49,379605
2585,000000	49,303715
2584,000000	49,418763
2583,000000	49,590901
2582,000000	49,619640
2581,000000	49,480754
2580,000000	49,351732
2579,000000	49,395991
2578,000000	49,566789
2577,000000	49,662614
2576,000000	49,570162
2575,000000	49,407552
2574,000000	49,382314
2573,000000	49,534359
2572,000000	49,681072
2571,000000	49,644034
2570,000000	49,473781
2569,000000	49,385149
2568,000000	49,490399
2567,000000	49,662257
2566,000000	49,695297
2565,000000	49,554643
2564,000000	49,414686
2563,000000	49,447432
2562,000000	49,616333
2561,000000	49,718340
2560,000000	49,630038
2559,000000	49,460702
2558,000000	49,423016
2557,000000	49,568153
2556,000000	49,718086
2555,000000	49,687366
2554,000000	49,515700
2553,000000	49,418259
2552,000000	49,515650
2551,000000	49,687884
2550,000000	49,726301
2549,000000	49,587331
2548,000000	49,442215
2547,000000	49,469397
2546,000000	49,639267
2545,000000	49,748544
2544,000000	49,664443
2543,000000	49,491490
2542,000000	49,447043
2541,000000	49,590997
2540,000000	49,747316
2539,000000	49,722833
2538,000000	49,551154
2537,000000	49,448431
2536,000000	49,542462
2535,000000	49,716933
2534,000000	49,759426
2533,000000	49,621590
2532,000000	49,475050
2531,000000	49,501062
2530,000000	49,673049
2529,000000	49,784549
2528,000000	49,700103
2527,000000	49,523493
2526,000000	49,475551
2525,000000	49,620169
2524,000000	49,780018
2523,000000	49,757934
2522,000000	49,584057
2521,000000	49,477346
2520,000000	49,570483
2519,000000	49,747793
2518,000000	49,791976
2517,000000	49,650933
2516,000000	49,496970
2515,000000	49,517613
2514,000000	49,687868
2513,000000	49,798799
2512,000000	49,711865
2511,000000	49,530888
2510,000000	49,480286
2509,000000	49,623904
2508,000000	49,781939
2507,000000	49,755395
2506,000000	49,575599
2505,000000	49,465478
2504,000000	49,558194
2503,000000	49,736080
2502,000000	49,779988
2501,000000	49,636745
2500,000000	49,481545
2499,000000	49,502532
2498,000000	49,674395
2497,000000	49,786780
2496,000000	49,699020
2495,000000	49,517551
2494,000000	49,467858
2493,000000	49,613846
2492,000000	49,773483
2491,000000	49,745707
2490,000000	49,565749
2489,000000	49,458585
2488,000000	49,555688
2487,000000	49,734537
2486,000000	49,773894
2485,000000	49,626835
2484,000000	49,473578
2483,000000	49,501110
2482,000000	49,677289
2481,000000	49,787209
2480,000000	49,693926
2479,000000	49,509757
2478,000000	49,462566
2477,000000	49,612465
2476,000000	49,771887
2475,000000	49,739864
2474,000000	49,555811
2473,000000	49,449461
2472,000000	49,550584
2471,000000	49,729665
2470,000000	49,765119
2469,000000	49,614424
2468,000000	49,462632
2467,000000	49,494228
2466,000000	49,669110
2465,000000	49,771206
2464,000000	49,670389
2463,000000	49,486321
2462,000000	49,446624
2461,000000	49,602499
2460,000000	49,759662
2459,000000	49,719738
2458,000000	49,531793
2457,000000	49,430567
2456,000000	49,539516
2455,000000	49,720003
2454,000000	49,747293
2453,000000	49,589564
2452,000000	49,442248
2451,000000	49,486241
2450,000000	49,668635
2449,000000	49,766490
2448,000000	49,658052
2447,000000	49,475518
2446,000000	49,445389
2445,000000	49,607475
2444,000000	49,759448
2443,000000	49,709542
2442,000000	49,520218
2441,000000	49,429787
2440,000000	49,551115
2439,000000	49,731252
2438,000000	49,747105
2437,000000	49,581720
2436,000000	49,439640
2435,000000	49,494647
2434,000000	49,677544
2433,000000	49,761978
2432,000000	49,640356
2431,000000	49,458075
2430,000000	49,439436
2429,000000	49,607225
2428,000000	49,749241
2427,000000	49,682986
2426,000000	49,488084
2425,000000	49,408414
2424,000000	49,542792
2423,000000	49,721176
2422,000000	49,721571
2421,000000	49,545092
2420,000000	49,410509
2419,000000	49,481090
2418,000000	49,666392
2417,000000	49,735676
2416,000000	49,599188
2415,000000	49,421017
2414,000000	49,419607
2413,000000	49,596742
2412,000000	49,730528
2411,000000	49,649830
2410,000000	49,453573
2409,000000	49,387861
2408,000000	49,534473
2407,000000	49,707788
2406,000000	49,689926
2405,000000	49,504844
2404,000000	49,383054
2403,000000	49,473090
2402,000000	49,660889
2401,000000	49,713067
2400,000000	49,564268
2399,000000	49,395978
2398,000000	49,415654
2397,000000	49,599421
2396,000000	49,716305
2395,000000	49,613546
2394,000000	49,409632
2393,000000	49,347234
2392,000000	49,480528
2391,000000	49,593683
2390,000000	49,460352
2389,000000	49,105713
2388,000000	48,738317
2387,000000	48,448093
2386,000000	48,050576
2385,000000	47,279517
2384,000000	46,066557
2383,000000	44,581839
2382,000000	43,012386
2381,000000	41,351031
2380,000000	39,459923
2379,000000	37,298632
2378,000000	35,039153
2377,000000	32,921964
2376,000000	31,023629
2375,000000	29,227055
2374,000000	27,415635
2373,000000	25,641350
2372,000000	24,053301
2371,000000	22,709037
2370,000000	21,520985
2369,000000	20,389765
2368,000000	19,327379
2367,000000	18,416143
2366,000000	17,704649
2365,000000	17,167495
2364,000000	16,745980
2363,000000	16,405314
2362,000000	16,164617
2361,000000	16,094651
2360,000000	16,245956
2359,000000	16,579066
2358,000000	17,026785
2357,000000	17,624934
2356,000000	18,520974
2355,000000	19,808210
2354,000000	21,454289
2353,000000	23,454064
2352,000000	25,863004
2351,000000	28,461607
2350,000000	30,446891
2349,000000	30,828110
2348,000000	29,322878
2347,000000	26,756142
2346,000000	24,400181
2345,000000	22,966655
2344,000000	22,321234
2343,000000	22,002700
2342,000000	21,778460
2341,000000	21,677432
2340,000000	21,752858
2339,000000	21,953730
2338,000000	22,184525
2337,000000	22,374433
2336,000000	22,510767
2335,000000	22,627697
2334,000000	22,747655
2333,000000	22,841735
2332,000000	22,895196
2331,000000	23,011365
2330,000000	23,366057
2329,000000	24,008811
2328,000000	24,760323
2327,000000	25,362430
2326,000000	25,720427
2325,000000	25,975956
2324,000000	26,349457
2323,000000	26,943178
2322,000000	27,692152
2321,000000	28,496880
2320,000000	29,374058
2319,000000	30,420652
2318,000000	31,613935
2317,000000	32,722416
2316,000000	33,511951
2315,000000	34,023764
2314,000000	34,544437
2313,000000	35,282927
2312,000000	36,162050
2311,000000	36,976044
2310,000000	37,672007
2309,000000	38,393512
2308,000000	39,267798
2307,000000	40,227723
2306,000000	41,073135
2305,000000	41,687349
2304,000000	42,166700
2303,000000	42,706906
2302,000000	43,359049
2301,000000	43,954876
2300,000000	44,324179
2299,000000	44,542712
2298,000000	44,858325
2297,000000	45,368269
2296,000000	45,885915
2295,000000	46,187840
2294,000000	46,308599
2293,000000	46,491535
2292,000000	46,876936
2291,000000	47,337109
2290,000000	47,643000
2289,000000	47,743007
2288,000000	47,824225
2287,000000	48,089458
2286,000000	48,501261
2285,000000	48,800077
2284,000000	48,804139
2283,000000	48,638029
2282,000000	48,580334
2281,000000	48,709430
2280,000000	48,812499
2279,000000	48,688194
2278,000000	48,428740
2277,000000	48,304287
2276,000000	48,416026
2275,000000	48,578293
2274,000000	48,561586
2273,000000	48,371528
2272,000000	48,231977
2271,000000	48,310928
2270,000000	48,514985
2269,000000	48,597041
2268,000000	48,460225
2267,000000	48,291490
2266,000000	48,333999
2265,000000	48,568231
2264,000000	48,727561
2263,000000	48,644393
2262,000000	48,471856
2261,000000	48,479532
2260,000000	48,701798
2259,000000	48,902438
2258,000000	48,880703
2257,000000	48,716142
2256,000000	48,659326
2255,000000	48,823542
2254,000000	49,049575
2253,000000	49,097525
2252,000000	48,942286
2251,000000	48,815274
2250,000000	48,918888
2249,000000	49,160333
2248,000000	49,260211
2247,000000	49,116219
2246,000000	48,942308
2245,000000	48,987616
2244,000000	49,212431
2243,000000	49,347337
2242,000000	49,243720
2241,000000	49,053519
2240,000000	49,027846
2239,000000	49,208063
2238,000000	49,381335
2237,000000	49,342124
2236,000000	49,145575
2235,000000	49,047364
2234,000000	49,187629
2233,000000	49,402270
2232,000000	49,422859
2231,000000	49,227307
2230,000000	49,076846
2229,000000	49,175097
2228,000000	49,399344
2227,000000	49,466606
2226,000000	49,301534
2225,000000	49,122235
2224,000000	49,154423
2223,000000	49,352460
2222,000000	49,467157
2221,000000	49,353184
2220,000000	49,145378
2219,000000	49,098095
2218,000000	49,270059
2217,000000	49,440488
2216,000000	49,380894
2215,000000	49,155768
2214,000000	49,050785
2213,000000	49,198338
2212,000000	49,399591
2211,000000	49,386893
2210,000000	49,174570
2209,000000	49,032614
2208,000000	49,131174
2207,000000	49,333989
2206,000000	49,381243
2205,000000	49,211997
2204,000000	49,033034
2203,000000	49,063821
2202,000000	49,266169
2201,000000	49,382864
2200,000000	49,256037
2199,000000	49,039462
2198,000000	49,010493
2197,000000	49,207344
2196,000000	49,369405
2195,000000	49,278976
2194,000000	49,050343
2193,000000	48,974222
2192,000000	49,137512
2191,000000	49,320267
2190,000000	49,287125
2189,000000	49,078804
2188,000000	48,950290
2187,000000	49,055530
2186,000000	49,259711
2185,000000	49,302062
2184,000000	49,119477
2183,000000	48,934768
2182,000000	48,982730
2181,000000	49,199868
2180,000000	49,295172
2179,000000	49,133820
2178,000000	48,918902
2177,000000	48,923300
2176,000000	49,128468
2175,000000	49,256360
2174,000000	49,136537
2173,000000	48,914701
2172,000000	48,857357
2171,000000	49,019560
2170,000000	49,185770
2169,000000	49,138260
2168,000000	48,925569
2167,000000	48,809626
2166,000000	48,937987
2165,000000	49,143357
2164,000000	49,147069
2163,000000	48,926165
2162,000000	48,756362
2161,000000	48,850182
2160,000000	49,073751
2159,000000	49,127649
2158,000000	48,940482
2157,000000	48,751101
2156,000000	48,789449
2155,000000	48,990041
2154,000000	49,088154
2153,000000	48,951187
2152,000000	48,740130
2151,000000	48,710027
2150,000000	48,893106
2149,000000	49,047820
2148,000000	48,957008
2147,000000	48,718815
2146,000000	48,630183
2145,000000	48,798824
2144,000000	48,992393
2143,000000	48,945444
2142,000000	48,711504
2141,000000	48,583078
2140,000000	48,703714
2139,000000	48,891508
2138,000000	48,886731
2137,000000	48,681980
2136,000000	48,522260
2135,000000	48,599170
2134,000000	48,812255
2133,000000	48,886442
2132,000000	48,714946
2131,000000	48,503147
2130,000000	48,516581
2129,000000	48,729761
2128,000000	48,849820
2127,000000	48,703807
2126,000000	48,470600
2125,000000	48,442261
2124,000000	48,635767
2123,000000	48,781558
2122,000000	48,682603
2121,000000	48,459463
2120,000000	48,384464
2119,000000	48,536032
2118,000000	48,704940
2117,000000	48,656453
2116,000000	48,424609
2115,000000	48,284717
2114,000000	48,408446
2113,000000	48,633129
2112,000000	48,660227
2111,000000	48,446980
2110,000000	48,270474
2109,000000	48,355077
2108,000000	48,574574
2107,000000	48,628028
2106,000000	48,440976
2105,000000	48,251951
2104,000000	48,290556
2103,000000	48,491694
2102,000000	48,589138
2101,000000	48,449251
2100,000000	48,235195
2099,000000	48,206837
2098,000000	48,395764
2097,000000	48,551955
2096,000000	48,457068
2095,000000	48,219574
2094,000000	48,139437
2093,000000	48,302829
2092,000000	48,457995
2091,000000	48,361786
2090,000000	48,117384
2089,000000	48,031578
2088,000000	48,207849
2087,000000	48,420268
2086,000000	48,412645
2085,000000	48,210097
2084,000000	48,067393
2083,000000	48,155503
2082,000000	48,355372
2081,000000	48,399667
2080,000000	48,206998
2079,000000	48,001685
2078,000000	48,040685
2077,000000	48,265878
2076,000000	48,364917
2075,000000	48,193170
2074,000000	47,976548
2073,000000	48,002069
2072,000000	48,224955
2071,000000	48,342248
2070,000000	48,201871
2069,000000	47,974251
2068,000000	47,901880
2067,000000	47,997228
2066,000000	48,067136
2065,000000	47,978143
2064,000000	47,824859
2063,000000	47,817680
2062,000000	48,013848
2061,000000	48,213534
2060,000000	48,182692
2059,000000	47,961535
2058,000000	47,840973
2057,000000	47,984244
2056,000000	48,198843
2055,000000	48,191938
2054,000000	47,967648
2053,000000	47,817698
2052,000000	47,924523
2051,000000	48,131979
2050,000000	48,163863
2049,000000	47,974603
2048,000000	47,794063
2047,000000	47,834618
2046,000000	48,027774
2045,000000	48,096485
2044,000000	47,897047
2043,000000	47,625714
2042,000000	47,595317
2041,000000	47,832455
2040,000000	48,028103
2039,000000	47,945544
2038,000000	47,736951
2037,000000	47,717628
2036,000000	47,923215
2035,000000	48,070085
2034,000000	47,957004
2033,000000	47,730548
2032,000000	47,673172
2031,000000	47,837480
2030,000000	47,994449
2029,000000	47,929946
2028,000000	47,709057
2027,000000	47,597034
2026,000000	47,729814
2025,000000	47,926812
2024,000000	47,910270
2023,000000	47,677941
2022,000000	47,517195
2021,000000	47,600258
2020,000000	47,717885
2019,000000	47,570430
2018,000000	47,223494
2017,000000	47,065089
2016,000000	47,302231
2015,000000	47,686979
2014,000000	47,834892
2013,000000	47,679707
2012,000000	47,496307
2011,000000	47,529344
2010,000000	47,713366
2009,000000	47,789968
2008,000000	47,640035
2007,000000	47,438768
2006,000000	47,444304
2005,000000	47,657321
2004,000000	47,795395
2003,000000	47,655904
2002,000000	47,402642
2001,000000	47,355108
2000,000000	47,547115
1999,000000	47,686648
1998,000000	47,573181
1997,000000	47,358449
1996,000000	47,274909
1995,000000	47,262694
1994,000000	47,069385
1993,000000	46,669559
1992,000000	46,380723
1991,000000	46,491837
1990,000000	46,905152
1989,000000	47,248502
1988,000000	47,288909
1987,000000	47,149495
1986,000000	47,113262
1985,000000	47,282077
1984,000000	47,475140
1983,000000	47,459719
1982,000000	47,245513
1981,000000	47,087489
1980,000000	47,173703
1979,000000	47,375022
1978,000000	47,400692
1977,000000	47,187821
1976,000000	46,998233
1975,000000	47,067956
1974,000000	47,282398
1973,000000	47,332903
1972,000000	47,128629
1971,000000	46,876946
1970,000000	46,755585
1969,000000	46,688284
1968,000000	46,532904
1967,000000	46,356657
1966,000000	46,374966
1965,000000	46,653575
1964,000000	46,988470
1963,000000	47,106464
1962,000000	46,944396
1961,000000	46,712568
1960,000000	46,677269
1959,000000	46,859818
1958,000000	46,993517
1957,000000	46,855100
1956,000000	46,585748
1955,000000	46,531770
1954,000000	46,763637
1953,000000	46,961640
1952,000000	46,862626
1951,000000	46,617636
1950,000000	46,542416
1949,000000	46,664812
1948,000000	46,723891
1947,000000	46,527726
1946,000000	46,118828
1945,000000	45,649830
1944,000000	45,282905
1943,000000	45,173296
1942,000000	45,373686
1941,000000	45,756530
1940,000000	46,143500
1939,000000	46,461718
1938,000000	46,669361
1937,000000	46,658898
1936,000000	46,428365
1935,000000	46,231977
1934,000000	46,309108
1933,000000	46,525392
1932,000000	46,543007
1931,000000	46,318854
1930,000000	46,163372
1929,000000	46,276043
1928,000000	46,466695
1927,000000	46,409395
1926,000000	45,999262
1925,000000	45,434162
1924,000000	45,067319
1923,000000	45,118296
1922,000000	45,362691
1921,000000	45,242162
1920,000000	44,548248
1919,000000	43,855056
1918,000000	43,908264
1917,000000	44,666486
1916,000000	45,399433
1915,000000	45,687521
1914,000000	45,784935
1913,000000	45,915387
1912,000000	45,827384
1911,000000	45,359049
1910,000000	44,927341
1909,000000	45,009455
1908,000000	45,446655
1907,000000	45,704774
1906,000000	45,616873
1905,000000	45,479297
1904,000000	45,529890
1903,000000	45,683284
1902,000000	45,747762
1901,000000	45,654710
1900,000000	45,481967
1899,000000	45,369991
1898,000000	45,356114
1897,000000	45,271599
1896,000000	44,980215
1895,000000	44,708029
1894,000000	44,799634
1893,000000	45,076661
1892,000000	44,905550
1891,000000	44,131370
1890,000000	43,495832
1889,000000	43,722615
1888,000000	44,549138
1887,000000	45,123607
1886,000000	45,108850
1885,000000	44,904751
1884,000000	44,914810
1883,000000	45,095944
1882,000000	45,210134
1881,000000	45,147779
1880,000000	44,965842
1879,000000	44,839265
1878,000000	44,925133
1877,000000	45,118357
1876,000000	45,109168
1875,000000	44,849104
1874,000000	44,655076
1873,000000	44,569822
1872,000000	44,027726
1871,000000	42,661127
1870,000000	41,166323
1869,000000	40,709256
1868,000000	41,556663
1867,000000	42,849361
1866,000000	43,723326
1865,000000	44,101293
1864,000000	44,306645
1863,000000	44,464491
1862,000000	44,507567
1861,000000	44,420572
1860,000000	44,263123
1859,000000	44,144479
1858,000000	44,207190
1857,000000	44,428911
1856,000000	44,517447
1855,000000	44,293949
1854,000000	44,055141
1853,000000	44,163594
1852,000000	44,394086
1851,000000	44,215106
1850,000000	43,648316
1849,000000	43,213061
1848,000000	42,919870
1847,000000	42,044405
1846,000000	40,319664
1845,000000	38,781440
1844,000000	38,804020
1843,000000	40,488703
1842,000000	42,513511
1841,000000	43,569990
1840,000000	43,537048
1839,000000	43,199636
1838,000000	43,162834
1837,000000	43,338249
1836,000000	43,389006
1835,000000	43,269530
1834,000000	43,075796
1833,000000	42,586587
1832,000000	41,486241
1831,000000	40,134605
1830,000000	39,533217
1829,000000	40,132092
1828,000000	41,082772
1827,000000	41,265502
1826,000000	40,736359
1825,000000	40,543996
1824,000000	41,243615
1823,000000	42,284012
1822,000000	42,908196
1821,000000	42,982251
1820,000000	42,785742
1819,000000	42,546478
1818,000000	42,432805
1817,000000	42,555118
1816,000000	42,737569
1815,000000	42,622495
1814,000000	42,160953
1813,000000	41,678815
1812,000000	41,379427
1811,000000	41,175286
1810,000000	41,081483
1809,000000	41,316150
1808,000000	41,836146
1807,000000	42,205254
1806,000000	42,110620
1805,000000	41,667350
1804,000000	41,073178
1803,000000	40,369838
1802,000000	39,696465
1801,000000	39,367035
1800,000000	39,507428
1799,000000	39,929520
1798,000000	40,432021
1797,000000	40,794212
1796,000000	40,499400
1795,000000	39,110864
1794,000000	37,153745
1793,000000	35,967637
1792,000000	36,366580
1791,000000	37,858109
1790,000000	39,425635
1789,000000	40,503725
1788,000000	40,918816
1787,000000	40,597917
1786,000000	39,854668
1785,000000	39,414136
1784,000000	39,588090
1783,000000	39,846475
1782,000000	39,657193
1781,000000	39,305176
1780,000000	39,352029
1779,000000	39,743433
1778,000000	39,994419
1777,000000	39,804987
1776,000000	38,959090
1775,000000	37,179175
1774,000000	34,834230
1773,000000	33,282502
1772,000000	33,580477
1771,000000	35,078268
1770,000000	36,236194
1769,000000	36,628470
1768,000000	37,179619
1767,000000	38,401389
1766,000000	39,443738
1765,000000	39,271391
1764,000000	38,019192
1763,000000	36,770711
1762,000000	36,404123
1761,000000	36,937692
1760,000000	37,678798
1759,000000	37,849331
1758,000000	37,379705
1757,000000	37,061816
1756,000000	37,498126
1755,000000	38,064619
1754,000000	37,534807
1753,000000	35,744687
1752,000000	33,913659
1751,000000	33,157946
1750,000000	33,444539
1749,000000	34,197383
1748,000000	35,133816
1747,000000	36,041437
1746,000000	36,474208
1745,000000	36,301082
1744,000000	36,010333
1743,000000	35,873681
1742,000000	35,400519
1741,000000	34,371106
1740,000000	33,758508
1739,000000	34,493881
1738,000000	35,530783
1737,000000	34,618986
1736,000000	31,321609
1735,000000	28,128288
1734,000000	27,776440
1733,000000	30,197888
1732,000000	33,043498
1731,000000	34,625276
1730,000000	35,289179
1729,000000	36,018125
1728,000000	36,855282
1727,000000	37,203437
1726,000000	36,926410
1725,000000	36,514704
1724,000000	36,411933
1723,000000	36,517812
1722,000000	36,235287
1721,000000	34,825812
1720,000000	32,130196
1719,000000	29,155417
1718,000000	27,510637
1717,000000	27,908201
1716,000000	29,571911
1715,000000	31,382252
1714,000000	33,035903
1713,000000	34,588439
1712,000000	35,604188
1711,000000	35,644188
1710,000000	35,129167
1709,000000	34,687159
1708,000000	34,044274
1707,000000	32,738830
1706,000000	31,571041
1705,000000	31,701750
1704,000000	32,278953
1703,000000	30,915077
1702,000000	27,247287
1701,000000	24,248472
1700,000000	24,539645
1699,000000	26,849083
1698,000000	27,944481
1697,000000	27,133288
1696,000000	26,842227
1695,000000	28,857980
1694,000000	32,013226
1693,000000	34,041660
1692,000000	34,228354
1691,000000	33,560459
1690,000000	33,106094
1689,000000	32,955684
1688,000000	32,228590
1687,000000	29,951483
1686,000000	26,476231
1685,000000	23,904200
1684,000000	24,227287
1683,000000	27,037230
1682,000000	29,981067
1681,000000	31,573047
1680,000000	32,271509
1679,000000	32,631278
1678,000000	32,013807
1677,000000	30,083720
1676,000000	28,281093
1675,000000	28,288957
1674,000000	29,680132
1673,000000	30,403277
1672,000000	29,461680
1671,000000	27,921657
1670,000000	27,307355
1669,000000	28,039941
1668,000000	29,553657
1667,000000	31,013441
1666,000000	31,608456
1665,000000	30,922123
1664,000000	29,523487
1663,000000	28,697532
1662,000000	29,144370
1661,000000	30,277815
1660,000000	31,070479
1659,000000	31,159057
1658,000000	30,654257
1657,000000	29,196446
1656,000000	26,116462
1655,000000	21,813152
1654,000000	18,394610
1653,000000	18,136791
1652,000000	21,133528
1651,000000	24,915924
1650,000000	26,653234
1649,000000	25,678286
1648,000000	23,673201
1647,000000	22,718479
1646,000000	23,532502
1645,000000	25,395982
1644,000000	27,138858
1643,000000	28,048806
1642,000000	28,143444
1641,000000	27,858739
1640,000000	27,356067
1639,000000	26,206469
1638,000000	24,095815
1637,000000	21,761811
1636,000000	20,684531
1635,000000	21,607769
1634,000000	23,739028
1633,000000	25,646521
1632,000000	26,533700
1631,000000	26,454773
1630,000000	25,796249
1629,000000	25,022506
1628,000000	24,579267
1627,000000	24,504995
1626,000000	24,275140
1625,000000	23,498983
1624,000000	22,647334
1623,000000	22,600878
1622,000000	23,473522
1621,000000	24,281197
1620,000000	23,934949
1619,000000	22,354283
1618,000000	20,534169
1617,000000	19,695205
1616,000000	20,308091
1615,000000	21,768353
1614,000000	22,983994
1613,000000	23,344040
1612,000000	23,075813
1611,000000	22,700476
1610,000000	22,412317
1609,000000	22,163716
1608,000000	22,014695
1607,000000	22,046737
1606,000000	22,097705
1605,000000	21,950015
1604,000000	21,691000
1603,000000	21,573156
1602,000000	21,593879
1601,000000	21,534544
1600,000000	21,360088
1599,000000	21,236618
1598,000000	21,173030
1597,000000	20,985647
1596,000000	20,659824
1595,000000	20,425492
1594,000000	20,392096
1593,000000	20,382927
1592,000000	20,235481
1591,000000	20,031244
1590,000000	19,906193
1589,000000	19,830280
1588,000000	19,702488
1587,000000	19,523145
1586,000000	19,352635
1585,000000	19,195849
1584,000000	19,023015
1583,000000	18,843995
1582,000000	18,691035
1581,000000	18,512302
1580,000000	18,097458
1579,000000	17,171683
1578,000000	15,760074
1577,000000	14,484682
1576,000000	14,214207
1575,000000	15,147851
1574,000000	16,393897
1573,000000	16,777389
1572,000000	16,032629
1571,000000	14,952326
1570,000000	14,423667
1569,000000	14,616622
1568,000000	15,091329
1567,000000	15,387430
1566,000000	15,374573
1565,000000	15,210238
1564,000000	15,010155
1563,000000	14,493178
1562,000000	13,138211
1561,000000	10,976380
1560,000000	9,060768
1559,000000	8,639908
1558,000000	9,800409
1557,000000	11,383572
1556,000000	12,356852
1555,000000	12,785713
1554,000000	13,238073
1553,000000	13,782104
1552,000000	14,060780
1551,000000	14,041101
1550,000000	14,071279
1549,000000	14,266296
1548,000000	14,305484
1547,000000	13,925876
1546,000000	13,257626
1545,000000	12,561259
1544,000000	11,879818
1543,000000	11,086358
1542,000000	10,169182
1541,000000	9,413527
1540,000000	9,326353
1539,000000	10,237509
1538,000000	11,802507
1537,000000	13,043166
1536,000000	13,191661
1535,000000	12,497851
1534,000000	11,927949
1533,000000	12,080710
1532,000000	12,663304
1531,000000	13,051499
1530,000000	12,983292
1529,000000	12,584024
1528,000000	12,044665
1527,000000	11,542118
1526,000000	11,226960
1525,000000	11,014036
1524,000000	10,570096
1523,000000	9,785136
1522,000000	9,105279
1521,000000	9,054117
1520,000000	9,518188
1519,000000	9,865934
1518,000000	9,784979
1517,000000	9,613622
1516,000000	9,734773
1515,000000	10,009713
1514,000000	10,051192
1513,000000	9,804639
1512,000000	9,511312
1511,000000	9,215990
1510,000000	8,652568
1509,000000	7,693245
1508,000000	6,686538
1507,000000	6,208038
1506,000000	6,538072
1505,000000	7,428077
1504,000000	8,319280
1503,000000	8,758763
1502,000000	8,666023
1501,000000	8,261148
1500,000000	7,778085
1499,000000	7,293152
1498,000000	6,840088
1497,000000	6,561177
1496,000000	6,608327
1495,000000	6,901712
1494,000000	7,129082
1493,000000	7,042817
1492,000000	6,699065
1491,000000	6,363030
1490,000000	6,237696
1489,000000	6,331307
1488,000000	6,544742
1487,000000	6,798236
1486,000000	7,051869
1485,000000	7,250503
1484,000000	7,324830
1483,000000	7,273162
1482,000000	7,193941
1481,000000	7,174947
1480,000000	7,167201
1479,000000	7,045158
1478,000000	6,784493
1477,000000	6,483817
1476,000000	6,196777
1475,000000	5,867407
1474,000000	5,504921
1473,000000	5,294471
1472,000000	5,409143
1471,000000	5,765863
1470,000000	6,089098
1469,000000	6,177934
1468,000000	6,018790
1467,000000	5,701755
1466,000000	5,356674
1465,000000	5,142021
1464,000000	5,140184
1463,000000	5,241774
1462,000000	5,222233
1461,000000	4,952815
1460,000000	4,470820
1459,000000	3,900516
1458,000000	3,408737
1457,000000	3,187420
1456,000000	3,309718
1455,000000	3,595364
1454,000000	3,755198
1453,000000	3,689783
1452,000000	3,528837
1451,000000	3,378899
1450,000000	3,203910
1449,000000	2,980351
1448,000000	2,800011
1447,000000	2,728435
1446,000000	2,693073
1445,000000	2,603222
1444,000000	2,478873
1443,000000	2,380383
1442,000000	2,296213
1441,000000	2,182455
1440,000000	2,036540
1439,000000	1,872147
1438,000000	1,693957
1437,000000	1,550335
1436,000000	1,522429
1435,000000	1,603973
1434,000000	1,673755
1433,000000	1,649570
1432,000000	1,585306
1431,000000	1,560172
1430,000000	1,565749
1429,000000	1,566107
1428,000000	1,578789
1427,000000	1,616006
1426,000000	1,632470
1425,000000	1,607181
1424,000000	1,597979
1423,000000	1,632912
1422,000000	1,635421
1421,000000	1,547633
1420,000000	1,449722
1419,000000	1,455716
1418,000000	1,550952
1417,000000	1,637471
1416,000000	1,679304
1415,000000	1,705591
1414,000000	1,713502
1413,000000	1,676233
1412,000000	1,616794
1411,000000	1,581221
1410,000000	1,559048
1409,000000	1,508396
1408,000000	1,435020
1407,000000	1,373281
1406,000000	1,320868
1405,000000	1,260359
1404,000000	1,213540
1403,000000	1,200529
1402,000000	1,182311
1401,000000	1,115904
1400,000000	1,035018
1399,000000	0,997993
1398,000000	0,990476
1397,000000	0,957077
1396,000000	0,901375
1395,000000	0,874344
1394,000000	0,882296
1393,000000	0,885934
1392,000000	0,871980
1391,000000	0,856266
1390,000000	0,829639
1389,000000	0,773105
1388,000000	0,711663
1387,000000	0,687303
1386,000000	0,689088
1385,000000	0,672977
1384,000000	0,636284
1383,000000	0,610251
1382,000000	0,595056
1381,000000	0,564204
1380,000000	0,522888
1379,000000	0,498911
1378,000000	0,487066
1377,000000	0,458687
1376,000000	0,418929
1375,000000	0,397227
1374,000000	0,392196
1373,000000	0,378186
1372,000000	0,356336
1371,000000	0,347359
1370,000000	0,344912
1369,000000	0,327636
1368,000000	0,304339
1367,000000	0,298744
1366,000000	0,300764
1365,000000	0,283769
1364,000000	0,255836
1363,000000	0,245905
1362,000000	0,250644
1361,000000	0,244997
1360,000000	0,231442
1359,000000	0,230452
1358,000000	0,235130
1357,000000	0,223308
1356,000000	0,203195
1355,000000	0,198836
1354,000000	0,203449
1353,000000	0,192421
1352,000000	0,171920
1351,000000	0,165824
1350,000000	0,169190
1349,000000	0,159223
1348,000000	0,141203
1347,000000	0,137417
1346,000000	0,142564
1345,000000	0,134742
1344,000000	0,119218
1343,000000	0,116959
1342,000000	0,121147
1341,000000	0,110351
1340,000000	0,091776
1339,000000	0,088669
1338,000000	0,095166
1337,000000	0,089082
1336,000000	0,075444
1335,000000	0,075499
1334,000000	0,083766
1333,000000	0,078636
1332,000000	0,065718
1331,000000	0,066416
1330,000000	0,076214
1329,000000	0,074028
1328,000000	0,064515
1327,000000	0,067602
1326,000000	0,078488
1325,000000	0,076863
1324,000000	0,067926
1323,000000	0,071916
1322,000000	0,083961
1321,000000	0,083346
1320,000000	0,075002
1319,000000	0,079372
1318,000000	0,091313
1317,000000	0,090317
1316,000000	0,080796
1315,000000	0,083253
1314,000000	0,093172
1313,000000	0,090723
1312,000000	0,080461
1311,000000	0,082179
1310,000000	0,091628
1309,000000	0,089145
1308,000000	0,078337
1307,000000	0,078319
1306,000000	0,085129
1305,000000	0,079991
1304,000000	0,067778
1303,000000	0,067535
1302,000000	0,074846
1301,000000	0,070309
1300,000000	0,058004
1299,000000	0,056866
1298,000000	0,063945
1297,000000	0,061001
1296,000000	0,051693
1295,000000	0,052902
1294,000000	0,060175
1293,000000	0,056086
1292,000000	0,045191
1291,000000	0,046093
1290,000000	0,054587
1289,000000	0,051766
1288,000000	0,041415
1287,000000	0,042086
1286,000000	0,051065
1285,000000	0,050656
1284,000000	0,043304
1283,000000	0,045424
1282,000000	0,053931
1281,000000	0,052022
1280,000000	0,043032
1279,000000	0,043904
1278,000000	0,051602
1277,000000	0,049745
1276,000000	0,041674
1275,000000	0,043569
1274,000000	0,052621
1273,000000	0,051596
1272,000000	0,043617
1271,000000	0,045689
1270,000000	0,054598
1269,000000	0,053296
1268,000000	0,044754
1267,000000	0,045547
1266,000000	0,053039
1265,000000	0,051203
1264,000000	0,043456
1263,000000	0,045290
1262,000000	0,052682
1261,000000	0,049745
1260,000000	0,040578
1259,000000	0,043244
1258,000000	0,054385
1257,000000	0,054801
1256,000000	0,046254
1255,000000	0,044211
1254,000000	0,047712
1253,000000	0,044006
1252,000000	0,036190
1251,000000	0,038659
1250,000000	0,048623
1249,000000	0,049144
1248,000000	0,042232
1247,000000	0,042770
1246,000000	0,048686
1245,000000	0,046765
1244,000000	0,040506
1243,000000	0,044851
1242,000000	0,055955
1241,000000	0,057438
1240,000000	0,051502
1239,000000	0,053262
1238,000000	0,061241
1237,000000	0,062170
1236,000000	0,057904
1235,000000	0,062710
1234,000000	0,073190
1233,000000	0,073297
1232,000000	0,065450
1231,000000	0,065325
1230,000000	0,071225
1229,000000	0,068860
1228,000000	0,061376
1227,000000	0,063969
1226,000000	0,072884
1225,000000	0,071084
1224,000000	0,061214
1223,000000	0,059602
1222,000000	0,065742
1221,000000	0,064833
1220,000000	0,057576
1219,000000	0,058673
1218,000000	0,065959
1217,000000	0,063250
1216,000000	0,051716
1215,000000	0,047131
1214,000000	0,051312
1213,000000	0,050864
1212,000000	0,044132
1211,000000	0,042510
1210,000000	0,045334
1209,000000	0,041581
1208,000000	0,034154
1207,000000	0,034775
1206,000000	0,040403
1205,000000	0,038884
1204,000000	0,032593
1203,000000	0,034916
1202,000000	0,042410
1201,000000	0,039993
1200,000000	0,030521
1199,000000	0,026956
1198,000000	0,030240
1197,000000	0,030360
1196,000000	0,026023
1195,000000	0,028073
1194,000000	0,032292
1193,000000	0,029200
1192,000000	0,022610
1191,000000	0,023303
1190,000000	0,030771
1189,000000	0,031669
1188,000000	0,025929
1187,000000	0,025381
1186,000000	0,028129
1185,000000	0,024718
1184,000000	0,018455
1183,000000	0,021216
1182,000000	0,028663
1181,000000	0,027005
1180,000000	0,020017
1179,000000	0,020821
1178,000000	0,028950
1177,000000	0,028831
1176,000000	0,021142
1175,000000	0,018476
1174,000000	0,021420
1173,000000	0,020125
1172,000000	0,014964
1171,000000	0,016127
1170,000000	0,021563
1169,000000	0,020730
1168,000000	0,015000
1167,000000	0,015626
1166,000000	0,022126
1165,000000	0,021581
1164,000000	0,015007
1163,000000	0,014217
1162,000000	0,018646
1161,000000	0,019035
1160,000000	0,014941
1159,000000	0,015586
1158,000000	0,020723
1157,000000	0,020098
1156,000000	0,014773
1155,000000	0,015619
1154,000000	0,021987
1153,000000	0,022068
1152,000000	0,016407
1151,000000	0,015724
1150,000000	0,019305
1149,000000	0,017382
1148,000000	0,011677
1147,000000	0,013475
1146,000000	0,020836
1145,000000	0,021025
1144,000000	0,014934
1143,000000	0,014221
1142,000000	0,018233
1141,000000	0,017469
1140,000000	0,012710
1139,000000	0,013068
1138,000000	0,017612
1137,000000	0,016578
1136,000000	0,010976
1135,000000	0,011842
1134,000000	0,018085
1133,000000	0,018125
1132,000000	0,013413
1131,000000	0,013782
1130,000000	0,018708
1129,000000	0,018139
1128,000000	0,012637
1127,000000	0,012710
1126,000000	0,017831
1125,000000	0,018264
1124,000000	0,014551
1123,000000	0,014804
1122,000000	0,019005
1121,000000	0,017944
1120,000000	0,012437
1119,000000	0,012293
1118,000000	0,016749
1117,000000	0,016422
1116,000000	0,012243
1115,000000	0,013086
1114,000000	0,018051
1113,000000	0,018478
1112,000000	0,013842
1111,000000	0,013101
1110,000000	0,016661
1109,000000	0,015461
1108,000000	0,010260
1107,000000	0,010769
1106,000000	0,015337
1105,000000	0,014604
1104,000000	0,009662
1103,000000	0,008766
1102,000000	0,013187
1101,000000	0,013561
1100,000000	0,008908
1099,000000	0,009284
1098,000000	0,013828
1097,000000	0,013878
1096,000000	0,009670
1095,000000	0,010269
1094,000000	0,014261
1093,000000	0,013653
1092,000000	0,010414
1091,000000	0,010937
1090,000000	0,015630
1089,000000	0,016223
1088,000000	0,011446
1087,000000	0,011207
1086,000000	0,014992
1085,000000	0,014900
1084,000000	0,011532
1083,000000	0,011541
1082,000000	0,015472
1081,000000	0,015034
1080,000000	0,010665
1079,000000	0,010493
1078,000000	0,013098
1077,000000	0,012400
1076,000000	0,008674
1075,000000	0,008702
1074,000000	0,012887
1073,000000	0,013059
1072,000000	0,009414
1071,000000	0,010268
1070,000000	0,014533
1069,000000	0,014211
1068,000000	0,009503
1067,000000	0,008846
1066,000000	0,011270
1065,000000	0,010721
1064,000000	0,007682
1063,000000	0,008862
1062,000000	0,013471
1061,000000	0,014362
1060,000000	0,010989
1059,000000	0,011017
1058,000000	0,014370
1057,000000	0,014535
1056,000000	0,012072
1055,000000	0,012291
1054,000000	0,014599
1053,000000	0,013164
1052,000000	0,009498
1051,000000	0,010061
1050,000000	0,014741
1049,000000	0,014841
1048,000000	0,010656
1047,000000	0,010035
1046,000000	0,011912
1045,000000	0,012137
1044,000000	0,010483
1043,000000	0,011036
1042,000000	0,014393
1041,000000	0,015145
1040,000000	0,011769
1039,000000	0,012025
1038,000000	0,015680
1037,000000	0,015683
1036,000000	0,011908
1035,000000	0,011310
1034,000000	0,014404
1033,000000	0,013939
1032,000000	0,010288
1031,000000	0,011124
1030,000000	0,016065
1029,000000	0,016617
1028,000000	0,012925
1027,000000	0,012362
1026,000000	0,015434
1025,000000	0,015134
1024,000000	0,011706
1023,000000	0,012488
1022,000000	0,015700
1021,000000	0,015999
1020,000000	0,012355
1019,000000	0,011725
1018,000000	0,015057
1017,000000	0,015329
1016,000000	0,012197
1015,000000	0,012709
1014,000000	0,016094
1013,000000	0,015956
1012,000000	0,012109
1011,000000	0,011665
1010,000000	0,015020
1009,000000	0,015208
1008,000000	0,011853
1007,000000	0,011974
1006,000000	0,015242
1005,000000	0,015220
1004,000000	0,012996
1003,000000	0,013730
1002,000000	0,017218
1001,000000	0,018236
1000,000000	0,015368
999,000000	0,015151
998,000000	0,017827
997,000000	0,016506
996,000000	0,012349
995,000000	0,012640
994,000000	0,016693
993,000000	0,017234
992,000000	0,013511
991,000000	0,013393
990,000000	0,016708
989,000000	0,016555
988,000000	0,013033
987,000000	0,012613
986,000000	0,015415
985,000000	0,015851
984,000000	0,013154
983,000000	0,012718
982,000000	0,015026
981,000000	0,015537
980,000000	0,012825
979,000000	0,011968
978,000000	0,014434
977,000000	0,014414
976,000000	0,012124
975,000000	0,013233
974,000000	0,016163
973,000000	0,015476
972,000000	0,012542
971,000000	0,012606
970,000000	0,015598
969,000000	0,016485
968,000000	0,013158
967,000000	0,011725
966,000000	0,013998
965,000000	0,014266
964,000000	0,011908
963,000000	0,012014
962,000000	0,014161
961,000000	0,014360
960,000000	0,011940
959,000000	0,012594
958,000000	0,016494
957,000000	0,016517
956,000000	0,012883
955,000000	0,012489
954,000000	0,015939
953,000000	0,017335
952,000000	0,014963
951,000000	0,014774
950,000000	0,016777
949,000000	0,015340
948,000000	0,010894
947,000000	0,009742
946,000000	0,012796
945,000000	0,014164
944,000000	0,012323
943,000000	0,012195
942,000000	0,014403
941,000000	0,014262
940,000000	0,011243
939,000000	0,010577
938,000000	0,012832
937,000000	0,012756
936,000000	0,009751
935,000000	0,010293
934,000000	0,014400
933,000000	0,015029
932,000000	0,011017
931,000000	0,009793
930,000000	0,012286
929,000000	0,012482
928,000000	0,009741
927,000000	0,009692
926,000000	0,012416
925,000000	0,012520
924,000000	0,008823
923,000000	0,008308
922,000000	0,011146
921,000000	0,012151
920,000000	0,010106
919,000000	0,009916
918,000000	0,012191
917,000000	0,012637
916,000000	0,010414
915,000000	0,010299
914,000000	0,012393
913,000000	0,011506
912,000000	0,007719
911,000000	0,007484
910,000000	0,011234
909,000000	0,012370
908,000000	0,009489
907,000000	0,008981
906,000000	0,011236
905,000000	0,011013
904,000000	0,008749
903,000000	0,009569
902,000000	0,013143
901,000000	0,013585
900,000000	0,010485
899,000000	0,009996
898,000000	0,012224
897,000000	0,012219
896,000000	0,009884
895,000000	0,009254
894,000000	0,010917
893,000000	0,011225
892,000000	0,007867
891,000000	0,007017
890,000000	0,009606
889,000000	0,010623
888,000000	0,008637
887,000000	0,008714
886,000000	0,009845
885,000000	0,009056
884,000000	0,006084
883,000000	0,005507
882,000000	0,007999
881,000000	0,009033
880,000000	0,008146
879,000000	0,008121
878,000000	0,009789
877,000000	0,009550
876,000000	0,006814
875,000000	0,006408
874,000000	0,008632
873,000000	0,009347
872,000000	0,008021
871,000000	0,008608
870,000000	0,011344
869,000000	0,011675
868,000000	0,008738
867,000000	0,007808
866,000000	0,009873
865,000000	0,010193
864,000000	0,007152
863,000000	0,006428
862,000000	0,009181
861,000000	0,010550
860,000000	0,008462
859,000000	0,008261
858,000000	0,011159
857,000000	0,011868
856,000000	0,009583
855,000000	0,009588
854,000000	0,011499
853,000000	0,011408
852,000000	0,009310
851,000000	0,008476
850,000000	0,010252
849,000000	0,011037
848,000000	0,008890
847,000000	0,008192
846,000000	0,010232
845,000000	0,010717
844,000000	0,008357
843,000000	0,007246
842,000000	0,008107
841,000000	0,007925
840,000000	0,007126
839,000000	0,008295
838,000000	0,010042
837,000000	0,010871
836,000000	0,009478
835,000000	0,008955
834,000000	0,010108
833,000000	0,010062
832,000000	0,008318
831,000000	0,009182
830,000000	0,012537
829,000000	0,012182
828,000000	0,007866
827,000000	0,006191
826,000000	0,007194
825,000000	0,007008
824,000000	0,006330
823,000000	0,006389
822,000000	0,007968
821,000000	0,008101
820,000000	0,005395
819,000000	0,005231
818,000000	0,008040
817,000000	0,008642
816,000000	0,006663
815,000000	0,006184
814,000000	0,008403
813,000000	0,008732
812,000000	0,005986
811,000000	0,005753
810,000000	0,008332
809,000000	0,009758
808,000000	0,008808
807,000000	0,009251
806,000000	0,010826
805,000000	0,010567
804,000000	0,008035
803,000000	0,007939
802,000000	0,009875
801,000000	0,010261
800,000000	0,008056
799,000000	0,006929
798,000000	0,008202
797,000000	0,008214
796,000000	0,006310
795,000000	0,005946
794,000000	0,008094
793,000000	0,009600
792,000000	0,008492
791,000000	0,009061
790,000000	0,011199
789,000000	0,010376
788,000000	0,006959
787,000000	0,005939
786,000000	0,007733
785,000000	0,008552
784,000000	0,006134
783,000000	0,005493
782,000000	0,007469
781,000000	0,008324
780,000000	0,007088
779,000000	0,006566
778,000000	0,006526
777,000000	0,006089
776,000000	0,004612
775,000000	0,005717
774,000000	0,008656
773,000000	0,009097
772,000000	0,006545
771,000000	0,005965
770,000000	0,008272
769,000000	0,009224
768,000000	0,007186
767,000000	0,006791
766,000000	0,007344
765,000000	0,007009
764,000000	0,005427
763,000000	0,005763
762,000000	0,008369
761,000000	0,008917
760,000000	0,006918
759,000000	0,005860
758,000000	0,006411
757,000000	0,006592
756,000000	0,005671
755,000000	0,006192
754,000000	0,007906
753,000000	0,008973
752,000000	0,008036
751,000000	0,008281
750,000000	0,009812
749,000000	0,009130
748,000000	0,006431
747,000000	0,005860
746,000000	0,006644
745,000000	0,006184
744,000000	0,004474
743,000000	0,004522
742,000000	0,006572
741,000000	0,007620
740,000000	0,006534
739,000000	0,005997
738,000000	0,006613
737,000000	0,006226
736,000000	0,005010
735,000000	0,005451
734,000000	0,007504
733,000000	0,009040
732,000000	0,007960
731,000000	0,007856
730,000000	0,009315
729,000000	0,009165
728,000000	0,006947
727,000000	0,006665
726,000000	0,007908
725,000000	0,008319
724,000000	0,006448
723,000000	0,005115
722,000000	0,006143
721,000000	0,007022
720,000000	0,005701
719,000000	0,006133
718,000000	0,007413
717,000000	0,008034
716,000000	0,007224
715,000000	0,006480
714,000000	0,007164
713,000000	0,007857
712,000000	0,007056
711,000000	0,006998
710,000000	0,007327
709,000000	0,007279
708,000000	0,006353
707,000000	0,007277
706,000000	0,008329
705,000000	0,007258
704,000000	0,004171
703,000000	0,002701
702,000000	0,005929
701,000000	0,007227
700,000000	0,004787
699,000000	0,004305
698,000000	0,006648
697,000000	0,007484
696,000000	0,004801
695,000000	0,003640
694,000000	0,005121
693,000000	0,006435
692,000000	0,006344
691,000000	0,004617
690,000000	0,003218
689,000000	0,004928
688,000000	0,003214
687,000000	0,003478
686,000000	0,006713
685,000000	0,007952
684,000000	0,007075
683,000000	0,006235
682,000000	0,005872
681,000000	0,004747
680,000000	0,001886
679,000000	0,001580
678,000000	0,004602
677,000000	0,006436
676,000000	0,006322
675,000000	0,006712
674,000000	0,006911
673,000000	0,005379
672,000000	0,002582
671,000000	0,002117
670,000000	0,000259
669,000000	0,000726
668,000000	0,001118
667,000000	0,002036
666,000000	0,004796
665,000000	0,005794
664,000000	0,004259
663,000000	0,004446
662,000000	0,006857
661,000000	0,007125
660,000000	0,005038
659,000000	0,004414
658,000000	0,005656
657,000000	0,006435
656,000000	0,005137
655,000000	0,005751
654,000000	0,008255
653,000000	0,008458
652,000000	0,007189
651,000000	0,007342
650,000000	0,006020
649,000000	0,004431
648,000000	0,002456
647,000000	0,002806
646,000000	0,005641
645,000000	0,006121
644,000000	0,004802
643,000000	0,004883
642,000000	0,004913
641,000000	0,005403
640,000000	0,003373
639,000000	0,001905
638,000000	0,002176
637,000000	0,002074
636,000000	0,001394
635,000000	0,001618
634,000000	0,003399
633,000000	0,004319
632,000000	0,003084
631,000000	0,003697
630,000000	0,006263
629,000000	0,008423
628,000000	0,008577
627,000000	0,006681
626,000000	0,006647
625,000000	0,006719
624,000000	0,004572
623,000000	0,004841
622,000000	0,006597
621,000000	0,006831
620,000000	0,004413
619,000000	0,003288
618,000000	0,005235
617,000000	0,006363
616,000000	0,004771
615,000000	0,005085
614,000000	0,007100
613,000000	0,007332
612,000000	0,005539
611,000000	0,004060
610,000000	0,004096
609,000000	0,004309
608,000000	0,002911
607,000000	0,003273
606,000000	0,004941
605,000000	0,004775
604,000000	0,001566
603,000000	0,001435
602,000000	0,002672
601,000000	0,004490
600,000000	0,003946
599,000000	0,002981
598,000000	0,003496
597,000000	0,003802
596,000000	0,003908
595,000000	0,004430
594,000000	0,003945
593,000000	0,004177
592,000000	0,002967
591,000000	0,002278
590,000000	0,003566
589,000000	0,004711
588,000000	0,003536
587,000000	0,002970
586,000000	0,003304
585,000000	0,003501
584,000000	0,002534
583,000000	0,002298
582,000000	0,004034
581,000000	0,004338
580,000000	0,002511
579,000000	0,002711
578,000000	0,004179
577,000000	0,005057
576,000000	0,004464
575,000000	0,004575
574,000000	0,004571
573,000000	0,004029
572,000000	0,001831
571,000000	0,000982
570,000000	0,000381
569,000000	0,001260
568,000000	0,003854
567,000000	0,003616
566,000000	0,001445
565,000000	0,002924
564,000000	0,001241
563,000000	0,000953
562,000000	0,002884
561,000000	0,004110
560,000000	0,002891
559,000000	0,002506
558,000000	0,004545
557,000000	0,004488
556,000000	0,001923
555,000000	0,001754
554,000000	0,003834
553,000000	0,004357
552,000000	0,003337
551,000000	0,004087
550,000000	0,004810
549,000000	0,005142
548,000000	0,004054
547,000000	0,002798
546,000000	0,002777
545,000000	0,002514
544,000000	0,001721
543,000000	0,001796
542,000000	0,001509
541,000000	0,003323
540,000000	0,003390
539,000000	0,003191
538,000000	0,003416
537,000000	0,002227
536,000000	0,002031
535,000000	0,003255
534,000000	0,000864
533,000000	0,001013
532,000000	0,000485
531,000000	0,000525
530,000000	0,002624
529,000000	0,003118
528,000000	0,001277
527,000000	0,000431
526,000000	0,001562
525,000000	0,002652
524,000000	0,002423
523,000000	0,002130
522,000000	0,001837
521,000000	0,002366
520,000000	0,000501
519,000000	0,000765
518,000000	0,002064
517,000000	0,002993
516,000000	0,001834
515,000000	0,001313
514,000000	0,001414
513,000000	0,001960
512,000000	0,000700
511,000000	0,001159
510,000000	0,001043
509,000000	0,002302
508,000000	0,001981
507,000000	0,001607
506,000000	0,002350
505,000000	0,001997
504,000000	0,001915
503,000000	0,002858
502,000000	0,001528
501,000000	0,001194
500,000000	0,002746
499,000000	0,002952
498,000000	0,001089
497,000000	0,000633
496,000000	0,001873
495,000000	0,003154
494,000000	0,002753
493,000000	0,003027
492,000000	0,001643
491,000000	0,001722
490,000000	0,000751
489,000000	0,000990
488,000000	0,000964
487,000000	0,000226
486,000000	0,002320
485,000000	0,002121
484,000000	0,001089
483,000000	0,001400
482,000000	0,001587
481,000000	0,002678
480,000000	0,002006
479,000000	0,001763
478,000000	0,000380
477,000000	0,000566
476,000000	0,001962
475,000000	0,002901
474,000000	0,001807
473,000000	0,000538
472,000000	0,002227
471,000000	0,003960
470,000000	0,002687
469,000000	0,000957
468,000000	0,002074
467,000000	0,003986
466,000000	0,003854
465,000000	0,003394
464,000000	0,000973
463,000000	0,002877
462,000000	0,004460
461,000000	0,004869
460,000000	0,005758
459,000000	0,004633
458,000000	0,003499
457,000000	0,004819
456,000000	0,004817
455,000000	0,005447
454,000000	0,004960
453,000000	0,003171
452,000000	0,003433
451,000000	0,003551
450,000000	0,002574
449,000000	0,004129
448,000000	0,003118
447,000000	0,003013
446,000000	0,004808
445,000000	0,004421
444,000000	0,003919
443,000000	0,005419
442,000000	0,005304
441,000000	0,004904
440,000000	0,004149
439,000000	0,002480
438,000000	0,000605
437,000000	0,000639
436,000000	0,001806
435,000000	0,002408
434,000000	0,001016
433,000000	0,003868
432,000000	0,004179
431,000000	0,004316
430,000000	0,004870
429,000000	0,003585
428,000000	0,001996
427,000000	0,001578
426,000000	0,001455
425,000000	0,003610
424,000000	0,002776
423,000000	0,002477
422,000000	0,003746
421,000000	0,003264
420,000000	0,001179
419,000000	0,002285
418,000000	0,001683
417,000000	0,001381
416,000000	0,002403
415,000000	0,001370
414,000000	0,001345
413,000000	0,001840
412,000000	0,001907
411,000000	0,002699
410,000000	0,002507
409,000000	0,002535
408,000000	0,001134
407,000000	0,000980
406,000000	0,003367
405,000000	0,004621
404,000000	0,002435
403,000000	0,000618
402,000000	0,000653
401,000000	0,000549
400,000000	0,002641
399,000000	0,003410
398,000000	0,001484
397,000000	0,002294
396,000000	0,003166
395,000000	0,002942
394,000000	0,001375
393,000000	0,001062
392,000000	0,001472
391,000000	0,001801
390,000000	0,001403
389,000000	0,001291
388,000000	0,000982
387,000000	0,001325
386,000000	0,000902
385,000000	0,000881
384,000000	0,002293
383,000000	0,004927
382,000000	0,004311
381,000000	0,003480
380,000000	0,003872
379,000000	0,003027
378,000000	0,002726
377,000000	0,003379
376,000000	0,002005
375,000000	0,003345
374,000000	0,002279
373,000000	0,001738
372,000000	0,002762
371,000000	0,001877
370,000000	0,001243
369,000000	0,003792
368,000000	0,003077
367,000000	0,002760
366,000000	0,004328
365,000000	0,004775
364,000000	0,003250
363,000000	0,002909
362,000000	0,004023
361,000000	0,003804
360,000000	0,001152
359,000000	0,000581
358,000000	0,002123
357,000000	0,003268
356,000000	0,003468
355,000000	0,004411
354,000000	0,006585
353,000000	0,008019
352,000000	0,005796
351,000000	0,003556
350,000000	0,003635
349,000000	0,003222
348,000000	0,001472
347,000000	0,002434
346,000000	0,004166
345,000000	0,004235
344,000000	0,003469
343,000000	0,002892
342,000000	0,001040
341,000000	0,003159
340,000000	0,002532
339,000000	0,003198
338,000000	0,004498
337,000000	0,005582
336,000000	0,004186
335,000000	0,004194
334,000000	0,006807
333,000000	0,006257
332,000000	0,003618
331,000000	0,002891
330,000000	0,000761
329,000000	0,003188
328,000000	0,004627
327,000000	0,004408
326,000000	0,002982
325,000000	0,002520
324,000000	0,002749
323,000000	0,003841
322,000000	0,003614
321,000000	0,003533
320,000000	0,002857
319,000000	0,003442
318,000000	0,002835
317,000000	0,003414
316,000000	0,006205
315,000000	0,007624
314,000000	0,005761
313,000000	0,004061
312,000000	0,003908
311,000000	0,003008
310,000000	0,001002
309,000000	0,000942
308,000000	0,001670
307,000000	0,001351
306,000000	0,003360
305,000000	0,006060
304,000000	0,004439
303,000000	0,002866
302,000000	0,004284
301,000000	0,004090
300,000000	0,001438
