PE IR       SUBTECH     SPECTRUM    ASCII       PEDS        4.00        
   -1
REF GaAs.ASC
25/06/17
10:47:59.00
25/06/17
10:47:59.00
Praktikum
Sample 029 By Praktikum date Dienstag, Juni 17 2025
300,000000
#HDR
-1
-1
#GR
cm-1
EGY
1.0
0.0
4000,000000
-1,000000
3701
8
2,304628
0,000147
#DATA
4000,000000	1,633153
3999,000000	1,631830
3998,000000	1,629294
3997,000000	1,626797
3996,000000	1,625504
3995,000000	1,625470
3994,000000	1,625681
3993,000000	1,625409
3992,000000	1,625303
3991,000000	1,626795
3990,000000	1,630348
3989,000000	1,634644
3988,000000	1,637696
3987,000000	1,638559
3986,000000	1,637828
3985,000000	1,636785
3984,000000	1,636444
3983,000000	1,637183
3982,000000	1,638731
3981,000000	1,640129
3980,000000	1,640034
3979,000000	1,637508
3978,000000	1,632825
3977,000000	1,627532
3976,000000	1,623562
3975,000000	1,622133
3974,000000	1,623199
3973,000000	1,625783
3972,000000	1,628904
3971,000000	1,632278
3970,000000	1,636226
3969,000000	1,640786
3968,000000	1,644794
3967,000000	1,645985
3966,000000	1,642547
3965,000000	1,635079
3964,000000	1,627009
3963,000000	1,622506
3962,000000	1,623353
3961,000000	1,627772
3960,000000	1,632418
3959,000000	1,635291
3958,000000	1,636662
3957,000000	1,637414
3956,000000	1,637031
3955,000000	1,633336
3954,000000	1,623912
3953,000000	1,608049
3952,000000	1,588375
3951,000000	1,571169
3950,000000	1,563648
3949,000000	1,568526
3948,000000	1,579899
3947,000000	1,585970
3946,000000	1,579172
3945,000000	1,564443
3944,000000	1,556328
3943,000000	1,566045
3942,000000	1,591148
3941,000000	1,618766
3940,000000	1,637953
3939,000000	1,646231
3938,000000	1,644874
3937,000000	1,632263
3936,000000	1,605792
3935,000000	1,569760
3934,000000	1,537396
3933,000000	1,523101
3932,000000	1,532150
3931,000000	1,557053
3930,000000	1,582161
3929,000000	1,592422
3928,000000	1,582765
3927,000000	1,562264
3926,000000	1,547365
3925,000000	1,548181
3924,000000	1,559400
3923,000000	1,565665
3922,000000	1,555749
3921,000000	1,531511
3920,000000	1,505598
3919,000000	1,493022
3918,000000	1,503940
3917,000000	1,538686
3916,000000	1,586566
3915,000000	1,631320
3914,000000	1,661188
3913,000000	1,675405
3912,000000	1,679802
3911,000000	1,676049
3910,000000	1,656462
3909,000000	1,610046
3908,000000	1,533957
3907,000000	1,440174
3906,000000	1,351444
3905,000000	1,288453
3904,000000	1,258190
3903,000000	1,254156
3902,000000	1,268450
3901,000000	1,301836
3900,000000	1,360001
3899,000000	1,439109
3898,000000	1,518557
3897,000000	1,569652
3896,000000	1,573220
3895,000000	1,532360
3894,000000	1,473548
3893,000000	1,434124
3892,000000	1,438172
3891,000000	1,474809
3890,000000	1,501964
3889,000000	1,484079
3888,000000	1,428197
3887,000000	1,378808
3886,000000	1,371609
3885,000000	1,396985
3884,000000	1,415310
3883,000000	1,405264
3882,000000	1,388810
3881,000000	1,404777
3880,000000	1,461814
3879,000000	1,524426
3878,000000	1,547075
3877,000000	1,517561
3876,000000	1,463336
3875,000000	1,415255
3874,000000	1,375890
3873,000000	1,330112
3872,000000	1,280944
3871,000000	1,258079
3870,000000	1,282388
3869,000000	1,333324
3868,000000	1,365958
3867,000000	1,358995
3866,000000	1,334956
3865,000000	1,332401
3864,000000	1,367243
3863,000000	1,426260
3862,000000	1,485752
3861,000000	1,526132
3860,000000	1,530597
3859,000000	1,482838
3858,000000	1,374972
3857,000000	1,220922
3856,000000	1,062986
3855,000000	0,960476
3854,000000	0,959197
3853,000000	1,061136
3852,000000	1,222464
3851,000000	1,383624
3850,000000	1,504358
3849,000000	1,572772
3848,000000	1,592557
3847,000000	1,572219
3846,000000	1,526021
3845,000000	1,471967
3844,000000	1,420613
3843,000000	1,368455
3842,000000	1,307568
3841,000000	1,241531
3840,000000	1,189348
3839,000000	1,172638
3838,000000	1,199028
3837,000000	1,255706
3836,000000	1,317792
3835,000000	1,366035
3834,000000	1,399634
3833,000000	1,432142
3832,000000	1,472970
3831,000000	1,514427
3830,000000	1,539571
3829,000000	1,542688
3828,000000	1,535784
3827,000000	1,529102
3826,000000	1,509709
3825,000000	1,451061
3824,000000	1,351059
3823,000000	1,252880
3822,000000	1,212054
3821,000000	1,240437
3820,000000	1,291583
3819,000000	1,312730
3818,000000	1,303055
3817,000000	1,311218
3816,000000	1,377507
3815,000000	1,489758
3814,000000	1,599293
3813,000000	1,664315
3812,000000	1,670898
3811,000000	1,624230
3810,000000	1,542312
3809,000000	1,459408
3808,000000	1,414064
3807,000000	1,415265
3806,000000	1,425397
3805,000000	1,395213
3804,000000	1,320749
3803,000000	1,254935
3802,000000	1,254200
3801,000000	1,319537
3800,000000	1,400655
3799,000000	1,453195
3798,000000	1,480688
3797,000000	1,516292
3796,000000	1,577575
3795,000000	1,649376
3794,000000	1,705676
3793,000000	1,735995
3792,000000	1,747648
3791,000000	1,750903
3790,000000	1,748030
3789,000000	1,735436
3788,000000	1,712668
3787,000000	1,688335
3786,000000	1,674694
3785,000000	1,674475
3784,000000	1,673663
3783,000000	1,653647
3782,000000	1,613913
3781,000000	1,579078
3780,000000	1,578596
3779,000000	1,618766
3778,000000	1,677796
3777,000000	1,726390
3776,000000	1,747692
3775,000000	1,737560
3774,000000	1,695928
3773,000000	1,629259
3772,000000	1,559436
3771,000000	1,516299
3770,000000	1,512315
3769,000000	1,531025
3768,000000	1,548404
3767,000000	1,561265
3766,000000	1,583395
3765,000000	1,615472
3764,000000	1,632619
3763,000000	1,610381
3762,000000	1,554870
3761,000000	1,499371
3760,000000	1,473981
3759,000000	1,482632
3758,000000	1,503570
3757,000000	1,503605
3756,000000	1,455307
3755,000000	1,354020
3754,000000	1,224831
3753,000000	1,110930
3752,000000	1,050424
3751,000000	1,055986
3750,000000	1,105786
3749,000000	1,150656
3748,000000	1,145171
3747,000000	1,089147
3746,000000	1,038040
3745,000000	1,057508
3744,000000	1,160059
3743,000000	1,292721
3742,000000	1,385948
3741,000000	1,404528
3740,000000	1,354939
3739,000000	1,264357
3738,000000	1,166448
3737,000000	1,095581
3736,000000	1,073860
3735,000000	1,100677
3734,000000	1,162032
3733,000000	1,246497
3732,000000	1,342797
3731,000000	1,427431
3730,000000	1,471526
3729,000000	1,467456
3728,000000	1,438657
3727,000000	1,416493
3726,000000	1,413151
3725,000000	1,421601
3724,000000	1,435166
3723,000000	1,456825
3722,000000	1,490701
3721,000000	1,533810
3720,000000	1,578746
3719,000000	1,618070
3718,000000	1,640847
3717,000000	1,629176
3716,000000	1,567782
3715,000000	1,462478
3714,000000	1,346864
3713,000000	1,265570
3712,000000	1,247733
3711,000000	1,292942
3710,000000	1,378784
3709,000000	1,476393
3708,000000	1,559764
3707,000000	1,609042
3706,000000	1,613977
3705,000000	1,581141
3704,000000	1,535733
3703,000000	1,510676
3702,000000	1,526022
3701,000000	1,573932
3700,000000	1,626255
3699,000000	1,659111
3698,000000	1,669153
3697,000000	1,664436
3696,000000	1,644333
3695,000000	1,596184
3694,000000	1,512232
3693,000000	1,403612
3692,000000	1,297244
3691,000000	1,225105
3690,000000	1,214096
3689,000000	1,274411
3688,000000	1,388115
3687,000000	1,513640
3686,000000	1,611206
3685,000000	1,664096
3684,000000	1,676351
3683,000000	1,657594
3682,000000	1,614577
3681,000000	1,549314
3680,000000	1,457110
3679,000000	1,334263
3678,000000	1,201138
3677,000000	1,109404
3676,000000	1,104721
3675,000000	1,173534
3674,000000	1,244509
3673,000000	1,257519
3672,000000	1,224445
3671,000000	1,213125
3670,000000	1,275485
3669,000000	1,401482
3668,000000	1,539171
3667,000000	1,643687
3666,000000	1,702508
3665,000000	1,727106
3664,000000	1,733976
3663,000000	1,733226
3662,000000	1,723990
3661,000000	1,695568
3660,000000	1,638317
3659,000000	1,560718
3658,000000	1,494619
3657,000000	1,472056
3656,000000	1,488808
3655,000000	1,496058
3654,000000	1,438985
3653,000000	1,309559
3652,000000	1,156722
3651,000000	1,046709
3650,000000	1,018859
3649,000000	1,074822
3648,000000	1,193525
3647,000000	1,342014
3646,000000	1,480671
3645,000000	1,578046
3644,000000	1,628376
3643,000000	1,648738
3642,000000	1,658045
3641,000000	1,663116
3640,000000	1,663243
3639,000000	1,657597
3638,000000	1,643876
3637,000000	1,618720
3636,000000	1,584507
3635,000000	1,546964
3634,000000	1,499079
3633,000000	1,418608
3632,000000	1,297489
3631,000000	1,173329
3630,000000	1,113406
3629,000000	1,158579
3628,000000	1,285766
3627,000000	1,429652
3626,000000	1,533564
3625,000000	1,575864
3624,000000	1,559316
3623,000000	1,496320
3622,000000	1,409879
3621,000000	1,335797
3620,000000	1,307198
3619,000000	1,330688
3618,000000	1,379666
3617,000000	1,415768
3616,000000	1,420359
3615,000000	1,405444
3614,000000	1,394636
3613,000000	1,396135
3612,000000	1,397898
3611,000000	1,389095
3610,000000	1,380138
3609,000000	1,395399
3608,000000	1,446661
3607,000000	1,518586
3606,000000	1,580477
3605,000000	1,609822
3604,000000	1,604981
3603,000000	1,581196
3602,000000	1,558173
3601,000000	1,547474
3600,000000	1,546375
3599,000000	1,543027
3598,000000	1,529753
3597,000000	1,512142
3596,000000	1,505137
3595,000000	1,519062
3594,000000	1,547580
3593,000000	1,567219
3592,000000	1,551279
3591,000000	1,491283
3590,000000	1,410748
3589,000000	1,354623
3588,000000	1,358143
3587,000000	1,421478
3586,000000	1,512927
3585,000000	1,594992
3584,000000	1,647329
3583,000000	1,670890
3582,000000	1,677520
3581,000000	1,678723
3580,000000	1,680376
3579,000000	1,683273
3578,000000	1,686304
3577,000000	1,689422
3576,000000	1,693900
3575,000000	1,699667
3574,000000	1,701752
3573,000000	1,688568
3572,000000	1,645649
3571,000000	1,566883
3570,000000	1,467223
3569,000000	1,382655
3568,000000	1,350101
3567,000000	1,381889
3566,000000	1,457523
3565,000000	1,540559
3564,000000	1,603596
3563,000000	1,640796
3562,000000	1,661770
3561,000000	1,678353
3560,000000	1,695894
3559,000000	1,712530
3558,000000	1,722534
3557,000000	1,720183
3556,000000	1,703827
3555,000000	1,679463
3554,000000	1,659704
3553,000000	1,655262
3552,000000	1,664215
3551,000000	1,671240
3550,000000	1,660558
3549,000000	1,631390
3548,000000	1,599630
3547,000000	1,584860
3546,000000	1,596056
3545,000000	1,628161
3544,000000	1,668453
3543,000000	1,704514
3542,000000	1,728551
3541,000000	1,737978
3540,000000	1,734609
3539,000000	1,723975
3538,000000	1,714296
3537,000000	1,712892
3536,000000	1,720841
3535,000000	1,731203
3534,000000	1,734064
3533,000000	1,724150
3532,000000	1,703591
3531,000000	1,678999
3530,000000	1,657513
3529,000000	1,644356
3528,000000	1,640529
3527,000000	1,642130
3526,000000	1,644604
3525,000000	1,648543
3524,000000	1,659147
3523,000000	1,678633
3522,000000	1,701629
3521,000000	1,720039
3520,000000	1,730929
3519,000000	1,737249
3518,000000	1,742342
3517,000000	1,746369
3516,000000	1,747675
3515,000000	1,744745
3514,000000	1,736321
3513,000000	1,722221
3512,000000	1,705981
3511,000000	1,695081
3510,000000	1,695492
3509,000000	1,704859
3508,000000	1,712238
3507,000000	1,706913
3506,000000	1,688603
3505,000000	1,668977
3504,000000	1,662254
3503,000000	1,673705
3502,000000	1,696436
3501,000000	1,718017
3500,000000	1,729886
3499,000000	1,731569
3498,000000	1,728650
3497,000000	1,727662
3496,000000	1,731699
3495,000000	1,739168
3494,000000	1,745871
3493,000000	1,748362
3492,000000	1,745687
3491,000000	1,739242
3490,000000	1,732123
3489,000000	1,728074
3488,000000	1,728885
3487,000000	1,731908
3486,000000	1,731579
3485,000000	1,724853
3484,000000	1,715007
3483,000000	1,709323
3482,000000	1,712864
3481,000000	1,724569
3480,000000	1,738431
3479,000000	1,747949
3478,000000	1,750418
3477,000000	1,748161
3476,000000	1,745997
3475,000000	1,747043
3474,000000	1,750800
3473,000000	1,754754
3472,000000	1,756891
3471,000000	1,756587
3470,000000	1,754319
3469,000000	1,751522
3468,000000	1,749909
3467,000000	1,749833
3466,000000	1,749673
3465,000000	1,747780
3464,000000	1,744894
3463,000000	1,743770
3462,000000	1,746307
3461,000000	1,751686
3460,000000	1,757358
3459,000000	1,761363
3458,000000	1,763543
3457,000000	1,764959
3456,000000	1,766576
3455,000000	1,768522
3454,000000	1,770242
3453,000000	1,770447
3452,000000	1,766606
3451,000000	1,755872
3450,000000	1,738663
3449,000000	1,721349
3448,000000	1,712985
3447,000000	1,717430
3446,000000	1,729604
3445,000000	1,740999
3444,000000	1,747912
3443,000000	1,752852
3442,000000	1,758946
3441,000000	1,765730
3440,000000	1,770934
3439,000000	1,773926
3438,000000	1,775800
3437,000000	1,777233
3436,000000	1,777885
3435,000000	1,777553
3434,000000	1,776807
3433,000000	1,776427
3432,000000	1,776843
3431,000000	1,778144
3430,000000	1,780161
3429,000000	1,782516
3428,000000	1,784726
3427,000000	1,786041
3426,000000	1,785117
3425,000000	1,780554
3424,000000	1,772604
3423,000000	1,764336
3422,000000	1,760244
3421,000000	1,763053
3420,000000	1,771629
3419,000000	1,781953
3418,000000	1,790131
3417,000000	1,794752
3416,000000	1,796858
3415,000000	1,798154
3414,000000	1,799488
3413,000000	1,800832
3412,000000	1,802133
3411,000000	1,803601
3410,000000	1,805216
3409,000000	1,806473
3408,000000	1,806855
3407,000000	1,806281
3406,000000	1,805076
3405,000000	1,803822
3404,000000	1,803292
3403,000000	1,803954
3402,000000	1,805166
3401,000000	1,805418
3400,000000	1,803972
3399,000000	1,801932
3398,000000	1,800983
3397,000000	1,801203
3396,000000	1,801086
3395,000000	1,799988
3394,000000	1,799682
3393,000000	1,802664
3392,000000	1,809173
3391,000000	1,816538
3390,000000	1,821461
3389,000000	1,822529
3388,000000	1,820708
3387,000000	1,818197
3386,000000	1,817061
3385,000000	1,818313
3384,000000	1,821510
3383,000000	1,825189
3382,000000	1,828041
3381,000000	1,829807
3380,000000	1,831029
3379,000000	1,832149
3378,000000	1,833151
3377,000000	1,833992
3376,000000	1,834915
3375,000000	1,836120
3374,000000	1,837342
3373,000000	1,837979
3372,000000	1,837576
3371,000000	1,836048
3370,000000	1,833635
3369,000000	1,830900
3368,000000	1,828734
3367,000000	1,828021
3366,000000	1,829015
3365,000000	1,831119
3364,000000	1,833471
3363,000000	1,835712
3362,000000	1,838043
3361,000000	1,840514
3360,000000	1,842541
3359,000000	1,843409
3358,000000	1,843232
3357,000000	1,843082
3356,000000	1,844004
3355,000000	1,846045
3354,000000	1,848409
3353,000000	1,850432
3352,000000	1,852121
3351,000000	1,853776
3350,000000	1,855430
3349,000000	1,856825
3348,000000	1,857758
3347,000000	1,858198
3346,000000	1,858160
3345,000000	1,857715
3344,000000	1,857153
3343,000000	1,856860
3342,000000	1,856857
3341,000000	1,856565
3340,000000	1,855279
3339,000000	1,853023
3338,000000	1,850853
3337,000000	1,850220
3336,000000	1,851876
3335,000000	1,855293
3334,000000	1,859057
3333,000000	1,861840
3332,000000	1,863093
3331,000000	1,863062
3330,000000	1,862379
3329,000000	1,861707
3328,000000	1,861550
3327,000000	1,862108
3326,000000	1,863231
3325,000000	1,864642
3324,000000	1,866215
3323,000000	1,867903
3322,000000	1,869433
3321,000000	1,870352
3320,000000	1,870529
3319,000000	1,870328
3318,000000	1,870029
3317,000000	1,869360
3316,000000	1,867961
3315,000000	1,866158
3314,000000	1,864736
3313,000000	1,863922
3312,000000	1,863194
3311,000000	1,862407
3310,000000	1,862595
3309,000000	1,865017
3308,000000	1,869542
3307,000000	1,874463
3306,000000	1,877978
3305,000000	1,879587
3304,000000	1,879975
3303,000000	1,879910
3302,000000	1,879545
3301,000000	1,878675
3300,000000	1,877423
3299,000000	1,876459
3298,000000	1,876369
3297,000000	1,876858
3296,000000	1,876867
3295,000000	1,875739
3294,000000	1,874119
3293,000000	1,873427
3292,000000	1,874463
3291,000000	1,876765
3290,000000	1,879305
3289,000000	1,881398
3288,000000	1,882830
3287,000000	1,883515
3286,000000	1,883431
3285,000000	1,882840
3284,000000	1,882268
3283,000000	1,882085
3282,000000	1,882174
3281,000000	1,881995
3280,000000	1,880986
3279,000000	1,878969
3278,000000	1,876307
3277,000000	1,873790
3276,000000	1,872369
3275,000000	1,872811
3274,000000	1,875302
3273,000000	1,879222
3272,000000	1,883406
3271,000000	1,886802
3270,000000	1,888966
3269,000000	1,889991
3268,000000	1,890169
3267,000000	1,889866
3266,000000	1,889552
3265,000000	1,889608
3264,000000	1,890017
3263,000000	1,890421
3262,000000	1,890545
3261,000000	1,890445
3260,000000	1,890254
3259,000000	1,889856
3258,000000	1,889001
3257,000000	1,887840
3256,000000	1,887195
3255,000000	1,888088
3254,000000	1,890828
3253,000000	1,894590
3252,000000	1,898008
3251,000000	1,900067
3250,000000	1,900293
3249,000000	1,898464
3248,000000	1,894889
3247,000000	1,891121
3246,000000	1,889570
3245,000000	1,891611
3244,000000	1,896123
3243,000000	1,900481
3242,000000	1,902915
3241,000000	1,903484
3240,000000	1,903141
3239,000000	1,902637
3238,000000	1,902454
3237,000000	1,902967
3236,000000	1,904098
3235,000000	1,905199
3234,000000	1,905710
3233,000000	1,905723
3232,000000	1,905626
3231,000000	1,905584
3230,000000	1,905741
3229,000000	1,906573
3228,000000	1,908474
3227,000000	1,911064
3226,000000	1,913360
3225,000000	1,914562
3224,000000	1,914364
3223,000000	1,912789
3222,000000	1,910416
3221,000000	1,908695
3220,000000	1,909088
3219,000000	1,911398
3218,000000	1,913571
3217,000000	1,913873
3216,000000	1,912891
3215,000000	1,912681
3214,000000	1,914086
3213,000000	1,915824
3212,000000	1,916470
3211,000000	1,916490
3210,000000	1,917667
3209,000000	1,920867
3208,000000	1,925097
3207,000000	1,928654
3206,000000	1,930656
3205,000000	1,931321
3204,000000	1,931226
3203,000000	1,930591
3202,000000	1,929129
3201,000000	1,926572
3200,000000	1,923476
3199,000000	1,921417
3198,000000	1,921925
3197,000000	1,925080
3196,000000	1,929356
3195,000000	1,933004
3194,000000	1,935356
3193,000000	1,936747
3192,000000	1,937636
3191,000000	1,938115
3190,000000	1,938053
3189,000000	1,937320
3188,000000	1,935975
3187,000000	1,934514
3186,000000	1,933855
3185,000000	1,934687
3184,000000	1,936663
3183,000000	1,938378
3182,000000	1,938368
3181,000000	1,936390
3180,000000	1,933827
3179,000000	1,932797
3178,000000	1,934488
3177,000000	1,938211
3176,000000	1,942128
3175,000000	1,944879
3174,000000	1,946377
3173,000000	1,947201
3172,000000	1,947789
3171,000000	1,948349
3170,000000	1,949082
3169,000000	1,950019
3168,000000	1,950845
3167,000000	1,951268
3166,000000	1,951416
3165,000000	1,951657
3164,000000	1,952179
3163,000000	1,952988
3162,000000	1,954126
3161,000000	1,955582
3160,000000	1,957115
3159,000000	1,958426
3158,000000	1,959401
3157,000000	1,959992
3156,000000	1,960075
3155,000000	1,959731
3154,000000	1,959498
3153,000000	1,959944
3152,000000	1,961062
3151,000000	1,962366
3150,000000	1,963516
3149,000000	1,964542
3148,000000	1,965507
3147,000000	1,966307
3146,000000	1,966836
3145,000000	1,967129
3144,000000	1,967311
3143,000000	1,967586
3142,000000	1,968218
3141,000000	1,969296
3140,000000	1,970560
3139,000000	1,971530
3138,000000	1,971661
3137,000000	1,970407
3136,000000	1,967632
3135,000000	1,964408
3134,000000	1,962918
3133,000000	1,964711
3132,000000	1,968932
3131,000000	1,972892
3130,000000	1,974547
3129,000000	1,974060
3128,000000	1,972824
3127,000000	1,971644
3126,000000	1,970355
3125,000000	1,968856
3124,000000	1,967826
3123,000000	1,968135
3122,000000	1,969758
3121,000000	1,971531
3120,000000	1,972153
3119,000000	1,971445
3118,000000	1,970518
3117,000000	1,970719
3116,000000	1,972491
3115,000000	1,975300
3114,000000	1,978293
3113,000000	1,980815
3112,000000	1,982554
3111,000000	1,983651
3110,000000	1,984621
3109,000000	1,985856
3108,000000	1,987145
3107,000000	1,987802
3106,000000	1,987223
3105,000000	1,985212
3104,000000	1,982181
3103,000000	1,979342
3102,000000	1,978337
3101,000000	1,979855
3100,000000	1,982655
3099,000000	1,984587
3098,000000	1,984876
3097,000000	1,984903
3096,000000	1,986496
3095,000000	1,989938
3094,000000	1,993948
3093,000000	1,997222
3092,000000	1,999408
3091,000000	2,000798
3090,000000	2,001652
3089,000000	2,002059
3088,000000	2,002136
3087,000000	2,002004
3086,000000	2,001556
3085,000000	2,000427
3084,000000	1,998437
3083,000000	1,996074
3082,000000	1,994389
3081,000000	1,994300
3080,000000	1,996048
3079,000000	1,999265
3078,000000	2,003278
3077,000000	2,007256
3076,000000	2,010380
3075,000000	2,012322
3074,000000	2,013403
3073,000000	2,013987
3072,000000	2,013794
3071,000000	2,012133
3070,000000	2,008782
3069,000000	2,004389
3068,000000	2,000152
3067,000000	1,997402
3066,000000	1,997244
3065,000000	1,999959
3064,000000	2,004529
3063,000000	2,009117
3062,000000	2,012195
3061,000000	2,013165
3060,000000	2,012174
3059,000000	2,010014
3058,000000	2,008234
3057,000000	2,008575
3056,000000	2,011645
3055,000000	2,016211
3054,000000	2,020121
3053,000000	2,021917
3052,000000	2,021608
3051,000000	2,020392
3050,000000	2,019864
3049,000000	2,021094
3048,000000	2,023947
3047,000000	2,027236
3046,000000	2,029774
3045,000000	2,031240
3044,000000	2,032014
3043,000000	2,032483
3042,000000	2,032798
3041,000000	2,032992
3040,000000	2,032899
3039,000000	2,032026
3038,000000	2,029952
3037,000000	2,026831
3036,000000	2,023281
3035,000000	2,019834
3034,000000	2,016971
3033,000000	2,015662
3032,000000	2,017083
3031,000000	2,021241
3030,000000	2,026193
3029,000000	2,029333
3028,000000	2,029644
3027,000000	2,028313
3026,000000	2,027153
3025,000000	2,026850
3024,000000	2,026973
3023,000000	2,027062
3022,000000	2,027043
3021,000000	2,026730
3020,000000	2,025694
3019,000000	2,023899
3018,000000	2,022082
3017,000000	2,021096
3016,000000	2,021094
3015,000000	2,021651
3014,000000	2,022584
3013,000000	2,024363
3012,000000	2,027679
3011,000000	2,032713
3010,000000	2,038713
3009,000000	2,044173
3008,000000	2,047641
3007,000000	2,048771
3006,000000	2,048658
3005,000000	2,048914
3004,000000	2,050324
3003,000000	2,052432
3002,000000	2,054360
3001,000000	2,055683
3000,000000	2,056476
2999,000000	2,056794
2998,000000	2,056508
2997,000000	2,055674
2996,000000	2,054844
2995,000000	2,054775
2994,000000	2,055734
2993,000000	2,057159
2992,000000	2,058116
2991,000000	2,058159
2990,000000	2,057710
2989,000000	2,057588
2988,000000	2,058218
2987,000000	2,059277
2986,000000	2,060027
2985,000000	2,059969
2984,000000	2,059225
2983,000000	2,058345
2982,000000	2,057698
2981,000000	2,057104
2980,000000	2,056100
2979,000000	2,054484
2978,000000	2,052468
2977,000000	2,050377
2976,000000	2,048415
2975,000000	2,046695
2974,000000	2,045199
2973,000000	2,043609
2972,000000	2,041398
2971,000000	2,038284
2970,000000	2,034518
2969,000000	2,030647
2968,000000	2,027101
2967,000000	2,024043
2966,000000	2,021413
2965,000000	2,019017
2964,000000	2,016721
2963,000000	2,014680
2962,000000	2,013227
2961,000000	2,012448
2960,000000	2,012022
2959,000000	2,011581
2958,000000	2,011095
2957,000000	2,010789
2956,000000	2,010858
2955,000000	2,011349
2954,000000	2,012159
2953,000000	2,013001
2952,000000	2,013481
2951,000000	2,013382
2950,000000	2,012778
2949,000000	2,011843
2948,000000	2,010656
2947,000000	2,009262
2946,000000	2,007711
2945,000000	2,005911
2944,000000	2,003613
2943,000000	2,000630
2942,000000	1,996975
2941,000000	1,992746
2940,000000	1,988137
2939,000000	1,983602
2938,000000	1,979726
2937,000000	1,976685
2936,000000	1,974058
2935,000000	1,971337
2934,000000	1,968447
2933,000000	1,965596
2932,000000	1,962851
2931,000000	1,960164
2930,000000	1,957684
2929,000000	1,955762
2928,000000	1,954683
2927,000000	1,954576
2926,000000	1,955516
2925,000000	1,957581
2924,000000	1,960852
2923,000000	1,965419
2922,000000	1,971299
2921,000000	1,978209
2920,000000	1,985582
2919,000000	1,992904
2918,000000	1,999985
2917,000000	2,006773
2916,000000	2,013101
2915,000000	2,018750
2914,000000	2,023636
2913,000000	2,027820
2912,000000	2,031424
2911,000000	2,034646
2910,000000	2,037727
2909,000000	2,040777
2908,000000	2,043754
2907,000000	2,046649
2906,000000	2,049562
2905,000000	2,052523
2904,000000	2,055444
2903,000000	2,058320
2902,000000	2,061270
2901,000000	2,064248
2900,000000	2,066925
2899,000000	2,069033
2898,000000	2,070707
2897,000000	2,072349
2896,000000	2,074259
2895,000000	2,076447
2894,000000	2,078674
2893,000000	2,080635
2892,000000	2,082276
2891,000000	2,083903
2890,000000	2,085790
2889,000000	2,087700
2888,000000	2,089125
2887,000000	2,089983
2886,000000	2,090698
2885,000000	2,091500
2884,000000	2,092070
2883,000000	2,092074
2882,000000	2,091674
2881,000000	2,091250
2880,000000	2,090919
2879,000000	2,090572
2878,000000	2,090098
2877,000000	2,089330
2876,000000	2,088041
2875,000000	2,086242
2874,000000	2,084257
2873,000000	2,082271
2872,000000	2,080027
2871,000000	2,077187
2870,000000	2,073744
2869,000000	2,069853
2868,000000	2,065536
2867,000000	2,060834
2866,000000	2,056060
2865,000000	2,051645
2864,000000	2,047932
2863,000000	2,045240
2862,000000	2,043834
2861,000000	2,043590
2860,000000	2,044009
2859,000000	2,044827
2858,000000	2,046349
2857,000000	2,048892
2856,000000	2,052260
2855,000000	2,056115
2854,000000	2,060539
2853,000000	2,065742
2852,000000	2,071385
2851,000000	2,076693
2850,000000	2,081233
2849,000000	2,085236
2848,000000	2,089179
2847,000000	2,093348
2846,000000	2,097744
2845,000000	2,102155
2844,000000	2,106294
2843,000000	2,110093
2842,000000	2,113810
2841,000000	2,117709
2840,000000	2,121717
2839,000000	2,125578
2838,000000	2,129166
2837,000000	2,132480
2836,000000	2,135482
2835,000000	2,138153
2834,000000	2,140621
2833,000000	2,143008
2832,000000	2,145249
2831,000000	2,147227
2830,000000	2,148963
2829,000000	2,150546
2828,000000	2,151997
2827,000000	2,153335
2826,000000	2,154617
2825,000000	2,155825
2824,000000	2,156894
2823,000000	2,157967
2822,000000	2,159350
2821,000000	2,161049
2820,000000	2,162639
2819,000000	2,163779
2818,000000	2,164605
2817,000000	2,165422
2816,000000	2,166269
2815,000000	2,167056
2814,000000	2,167853
2813,000000	2,168753
2812,000000	2,169624
2811,000000	2,170318
2810,000000	2,170981
2809,000000	2,171897
2808,000000	2,173131
2807,000000	2,174500
2806,000000	2,175759
2805,000000	2,176685
2804,000000	2,177188
2803,000000	2,177481
2802,000000	2,177897
2801,000000	2,178435
2800,000000	2,178765
2799,000000	2,178871
2798,000000	2,179275
2797,000000	2,180355
2796,000000	2,181756
2795,000000	2,182855
2794,000000	2,183532
2793,000000	2,184115
2792,000000	2,184803
2791,000000	2,185539
2790,000000	2,186320
2789,000000	2,187271
2788,000000	2,188451
2787,000000	2,189868
2786,000000	2,191553
2785,000000	2,193396
2784,000000	2,195079
2783,000000	2,196398
2782,000000	2,197497
2781,000000	2,198557
2780,000000	2,199467
2779,000000	2,200073
2778,000000	2,200561
2777,000000	2,201265
2776,000000	2,202234
2775,000000	2,203262
2774,000000	2,204225
2773,000000	2,205105
2772,000000	2,205829
2771,000000	2,206341
2770,000000	2,206759
2769,000000	2,207226
2768,000000	2,207711
2767,000000	2,208140
2766,000000	2,208581
2765,000000	2,209124
2764,000000	2,209716
2763,000000	2,210311
2762,000000	2,210989
2761,000000	2,211752
2760,000000	2,212383
2759,000000	2,212745
2758,000000	2,213034
2757,000000	2,213522
2756,000000	2,214225
2755,000000	2,215012
2754,000000	2,215828
2753,000000	2,216615
2752,000000	2,217203
2751,000000	2,217537
2750,000000	2,217834
2749,000000	2,218294
2748,000000	2,218856
2747,000000	2,219411
2746,000000	2,220034
2745,000000	2,220755
2744,000000	2,221357
2743,000000	2,221689
2742,000000	2,221977
2741,000000	2,222512
2740,000000	2,223168
2739,000000	2,223532
2738,000000	2,223434
2737,000000	2,223140
2736,000000	2,223078
2735,000000	2,223538
2734,000000	2,224504
2733,000000	2,225644
2732,000000	2,226547
2731,000000	2,227075
2730,000000	2,227377
2729,000000	2,227579
2728,000000	2,227690
2727,000000	2,227839
2726,000000	2,228249
2725,000000	2,228893
2724,000000	2,229548
2723,000000	2,230273
2722,000000	2,231438
2721,000000	2,233064
2720,000000	2,234565
2719,000000	2,235437
2718,000000	2,235868
2717,000000	2,236365
2716,000000	2,237071
2715,000000	2,237737
2714,000000	2,238123
2713,000000	2,238180
2712,000000	2,238077
2711,000000	2,238241
2710,000000	2,239066
2709,000000	2,240406
2708,000000	2,241646
2707,000000	2,242459
2706,000000	2,243108
2705,000000	2,243830
2704,000000	2,244406
2703,000000	2,244648
2702,000000	2,244882
2701,000000	2,245529
2700,000000	2,246530
2699,000000	2,247548
2698,000000	2,248434
2697,000000	2,249156
2696,000000	2,249630
2695,000000	2,249977
2694,000000	2,250615
2693,000000	2,251683
2692,000000	2,252695
2691,000000	2,253142
2690,000000	2,253161
2689,000000	2,253214
2688,000000	2,253439
2687,000000	2,253731
2686,000000	2,254178
2685,000000	2,254881
2684,000000	2,255573
2683,000000	2,255895
2682,000000	2,255920
2681,000000	2,256018
2680,000000	2,256346
2679,000000	2,256826
2678,000000	2,257439
2677,000000	2,258173
2676,000000	2,258820
2675,000000	2,259169
2674,000000	2,259279
2673,000000	2,259277
2672,000000	2,259124
2671,000000	2,258857
2670,000000	2,258809
2669,000000	2,259205
2668,000000	2,259763
2667,000000	2,260070
2666,000000	2,260139
2665,000000	2,260234
2664,000000	2,260355
2663,000000	2,260320
2662,000000	2,260215
2661,000000	2,260367
2660,000000	2,260936
2659,000000	2,261818
2658,000000	2,262830
2657,000000	2,263727
2656,000000	2,264214
2655,000000	2,264231
2654,000000	2,264079
2653,000000	2,264033
2652,000000	2,264031
2651,000000	2,263982
2650,000000	2,264088
2649,000000	2,264524
2648,000000	2,265068
2647,000000	2,265432
2646,000000	2,265735
2645,000000	2,266272
2644,000000	2,266997
2643,000000	2,267610
2642,000000	2,268027
2641,000000	2,268418
2640,000000	2,268892
2639,000000	2,269456
2638,000000	2,270152
2637,000000	2,270944
2636,000000	2,271597
2635,000000	2,271922
2634,000000	2,272000
2633,000000	2,271994
2632,000000	2,271941
2631,000000	2,271919
2630,000000	2,272146
2629,000000	2,272658
2628,000000	2,273162
2627,000000	2,273478
2626,000000	2,273849
2625,000000	2,274516
2624,000000	2,275281
2623,000000	2,275798
2622,000000	2,276061
2621,000000	2,276263
2620,000000	2,276447
2619,000000	2,276615
2618,000000	2,276938
2617,000000	2,277508
2616,000000	2,278103
2615,000000	2,278508
2614,000000	2,278856
2613,000000	2,279351
2612,000000	2,279881
2611,000000	2,280225
2610,000000	2,280413
2609,000000	2,280568
2608,000000	2,280633
2607,000000	2,280549
2606,000000	2,280453
2605,000000	2,280432
2604,000000	2,280326
2603,000000	2,280095
2602,000000	2,280050
2601,000000	2,280420
2600,000000	2,280959
2599,000000	2,281325
2598,000000	2,281523
2597,000000	2,281640
2596,000000	2,281485
2595,000000	2,280930
2594,000000	2,280299
2593,000000	2,279962
2592,000000	2,279797
2591,000000	2,279484
2590,000000	2,279108
2589,000000	2,279012
2588,000000	2,279244
2587,000000	2,279606
2586,000000	2,280066
2585,000000	2,280671
2584,000000	2,281214
2583,000000	2,281434
2582,000000	2,281463
2581,000000	2,281683
2580,000000	2,282190
2579,000000	2,282713
2578,000000	2,283007
2577,000000	2,283047
2576,000000	2,282939
2575,000000	2,282908
2574,000000	2,283216
2573,000000	2,283846
2572,000000	2,284412
2571,000000	2,284638
2570,000000	2,284719
2569,000000	2,284979
2568,000000	2,285393
2567,000000	2,285711
2566,000000	2,285841
2565,000000	2,285839
2564,000000	2,285729
2563,000000	2,285593
2562,000000	2,285617
2561,000000	2,285792
2560,000000	2,285837
2559,000000	2,285661
2558,000000	2,285630
2557,000000	2,286060
2556,000000	2,286708
2555,000000	2,287045
2554,000000	2,286819
2553,000000	2,286143
2552,000000	2,285305
2551,000000	2,284767
2550,000000	2,284944
2549,000000	2,285679
2548,000000	2,286229
2547,000000	2,286122
2546,000000	2,285742
2545,000000	2,285733
2544,000000	2,286165
2543,000000	2,286614
2542,000000	2,286785
2541,000000	2,286650
2540,000000	2,286272
2539,000000	2,285844
2538,000000	2,285682
2537,000000	2,285850
2536,000000	2,286028
2535,000000	2,286024
2534,000000	2,286085
2533,000000	2,286441
2532,000000	2,286887
2531,000000	2,287187
2530,000000	2,287485
2529,000000	2,287936
2528,000000	2,288264
2527,000000	2,288145
2526,000000	2,287734
2525,000000	2,287423
2524,000000	2,287337
2523,000000	2,287435
2522,000000	2,287763
2521,000000	2,288213
2520,000000	2,288344
2519,000000	2,287894
2518,000000	2,287201
2517,000000	2,286714
2516,000000	2,286415
2515,000000	2,286116
2514,000000	2,285988
2513,000000	2,286247
2512,000000	2,286617
2511,000000	2,286627
2510,000000	2,286263
2509,000000	2,285874
2508,000000	2,285589
2507,000000	2,285267
2506,000000	2,284849
2505,000000	2,284372
2504,000000	2,283799
2503,000000	2,283183
2502,000000	2,282808
2501,000000	2,282845
2500,000000	2,283045
2499,000000	2,283094
2498,000000	2,282987
2497,000000	2,282791
2496,000000	2,282371
2495,000000	2,281697
2494,000000	2,281089
2493,000000	2,280759
2492,000000	2,280420
2491,000000	2,279791
2490,000000	2,279148
2489,000000	2,278927
2488,000000	2,279034
2487,000000	2,279016
2486,000000	2,278695
2485,000000	2,278235
2484,000000	2,277799
2483,000000	2,277523
2482,000000	2,277547
2481,000000	2,277712
2480,000000	2,277531
2479,000000	2,276832
2478,000000	2,276109
2477,000000	2,275875
2476,000000	2,276008
2475,000000	2,276160
2474,000000	2,276386
2473,000000	2,276838
2472,000000	2,277195
2471,000000	2,277014
2470,000000	2,276421
2469,000000	2,275918
2468,000000	2,275698
2467,000000	2,275632
2466,000000	2,275711
2465,000000	2,275961
2464,000000	2,276120
2463,000000	2,275875
2462,000000	2,275282
2461,000000	2,274570
2460,000000	2,273783
2459,000000	2,273019
2458,000000	2,272725
2457,000000	2,273227
2456,000000	2,274170
2455,000000	2,274906
2454,000000	2,275225
2453,000000	2,275273
2452,000000	2,275056
2451,000000	2,274555
2450,000000	2,274106
2449,000000	2,274094
2448,000000	2,274411
2447,000000	2,274708
2446,000000	2,274973
2445,000000	2,275371
2444,000000	2,275714
2443,000000	2,275640
2442,000000	2,275185
2441,000000	2,274684
2440,000000	2,274256
2439,000000	2,273878
2438,000000	2,273809
2437,000000	2,274367
2436,000000	2,275352
2435,000000	2,276146
2434,000000	2,276365
2433,000000	2,276038
2432,000000	2,275316
2431,000000	2,274426
2430,000000	2,273796
2429,000000	2,273729
2428,000000	2,274014
2427,000000	2,274205
2426,000000	2,274168
2425,000000	2,274043
2424,000000	2,273842
2423,000000	2,273510
2422,000000	2,273221
2421,000000	2,273200
2420,000000	2,273388
2419,000000	2,273608
2418,000000	2,273855
2417,000000	2,274079
2416,000000	2,273935
2415,000000	2,273227
2414,000000	2,272350
2413,000000	2,271841
2412,000000	2,271672
2411,000000	2,271442
2410,000000	2,271063
2409,000000	2,270744
2408,000000	2,270484
2407,000000	2,270118
2406,000000	2,269767
2405,000000	2,269746
2404,000000	2,270080
2403,000000	2,270503
2402,000000	2,270842
2401,000000	2,271043
2400,000000	2,270979
2399,000000	2,270643
2398,000000	2,270362
2397,000000	2,270388
2396,000000	2,270428
2395,000000	2,270013
2394,000000	2,269082
2393,000000	2,267729
2392,000000	2,265567
2391,000000	2,261732
2390,000000	2,255386
2389,000000	2,245410
2388,000000	2,229735
2387,000000	2,205742
2386,000000	2,170990
2385,000000	2,123847
2384,000000	2,063144
2383,000000	1,988452
2382,000000	1,901069
2381,000000	1,803671
2380,000000	1,699662
2379,000000	1,592386
2378,000000	1,485080
2377,000000	1,380617
2376,000000	1,280721
2375,000000	1,186141
2374,000000	1,097431
2373,000000	1,015351
2372,000000	0,940163
2371,000000	0,871649
2370,000000	0,809732
2369,000000	0,754796
2368,000000	0,707150
2367,000000	0,666334
2366,000000	0,631949
2365,000000	0,604092
2364,000000	0,582812
2363,000000	0,567724
2362,000000	0,558398
2361,000000	0,555384
2360,000000	0,559718
2359,000000	0,571969
2358,000000	0,592774
2357,000000	0,623367
2356,000000	0,665588
2355,000000	0,721510
2354,000000	0,794415
2353,000000	0,888109
2352,000000	0,999269
2351,000000	1,107910
2350,000000	1,179376
2349,000000	1,185157
2348,000000	1,125617
2347,000000	1,031672
2346,000000	0,941804
2345,000000	0,877496
2344,000000	0,839146
2343,000000	0,818428
2342,000000	0,809348
2341,000000	0,808440
2340,000000	0,812330
2339,000000	0,818308
2338,000000	0,826032
2337,000000	0,835543
2336,000000	0,845006
2335,000000	0,851748
2334,000000	0,855163
2333,000000	0,857730
2332,000000	0,863403
2331,000000	0,875591
2330,000000	0,895603
2329,000000	0,921695
2328,000000	0,949772
2327,000000	0,975856
2326,000000	0,998357
2325,000000	1,018600
2324,000000	1,039751
2323,000000	1,065656
2322,000000	1,099386
2321,000000	1,141867
2320,000000	1,191587
2319,000000	1,245292
2318,000000	1,298740
2317,000000	1,347442
2316,000000	1,388496
2315,000000	1,422715
2314,000000	1,454236
2313,000000	1,487467
2312,000000	1,524404
2311,000000	1,564757
2310,000000	1,607388
2309,000000	1,651099
2308,000000	1,694748
2307,000000	1,737440
2306,000000	1,778351
2305,000000	1,816233
2304,000000	1,849893
2303,000000	1,879483
2302,000000	1,906515
2301,000000	1,932262
2300,000000	1,956696
2299,000000	1,979455
2298,000000	2,000854
2297,000000	2,021395
2296,000000	2,041076
2295,000000	2,059753
2294,000000	2,077660
2293,000000	2,094930
2292,000000	2,111241
2291,000000	2,126555
2290,000000	2,141567
2289,000000	2,156867
2288,000000	2,172127
2287,000000	2,186493
2286,000000	2,199245
2285,000000	2,209511
2284,000000	2,216146
2283,000000	2,218709
2282,000000	2,218063
2281,000000	2,215622
2280,000000	2,212295
2279,000000	2,208666
2278,000000	2,205453
2277,000000	2,203110
2276,000000	2,201447
2275,000000	2,200123
2274,000000	2,199176
2273,000000	2,198660
2272,000000	2,198358
2271,000000	2,198289
2270,000000	2,198931
2269,000000	2,200448
2268,000000	2,202275
2267,000000	2,203945
2266,000000	2,205737
2265,000000	2,208006
2264,000000	2,210494
2263,000000	2,212830
2262,000000	2,215126
2261,000000	2,217516
2260,000000	2,219720
2259,000000	2,221623
2258,000000	2,223721
2257,000000	2,226369
2256,000000	2,229120
2255,000000	2,231392
2254,000000	2,233280
2253,000000	2,235168
2252,000000	2,237033
2251,000000	2,238721
2250,000000	2,240409
2249,000000	2,242247
2248,000000	2,243982
2247,000000	2,245428
2246,000000	2,246822
2245,000000	2,248264
2244,000000	2,249383
2243,000000	2,250018
2242,000000	2,250686
2241,000000	2,251809
2240,000000	2,253026
2239,000000	2,253779
2238,000000	2,254083
2237,000000	2,254251
2236,000000	2,254442
2235,000000	2,254899
2234,000000	2,256008
2233,000000	2,257583
2232,000000	2,258731
2231,000000	2,258973
2230,000000	2,258884
2229,000000	2,259140
2228,000000	2,259592
2227,000000	2,259870
2226,000000	2,260157
2225,000000	2,260684
2224,000000	2,261055
2223,000000	2,260803
2222,000000	2,260129
2221,000000	2,259477
2220,000000	2,258918
2219,000000	2,258517
2218,000000	2,258690
2217,000000	2,259515
2216,000000	2,260227
2215,000000	2,260085
2214,000000	2,259323
2213,000000	2,258657
2212,000000	2,258345
2211,000000	2,258270
2210,000000	2,258412
2209,000000	2,258625
2208,000000	2,258441
2207,000000	2,257704
2206,000000	2,256943
2205,000000	2,256627
2204,000000	2,256556
2203,000000	2,256473
2202,000000	2,256623
2201,000000	2,257185
2200,000000	2,257706
2199,000000	2,257759
2198,000000	2,257583
2197,000000	2,257543
2196,000000	2,257507
2195,000000	2,257301
2194,000000	2,257189
2193,000000	2,257293
2192,000000	2,257164
2191,000000	2,256529
2190,000000	2,255919
2189,000000	2,255927
2188,000000	2,256381
2187,000000	2,256808
2186,000000	2,257151
2185,000000	2,257493
2184,000000	2,257639
2183,000000	2,257545
2182,000000	2,257567
2181,000000	2,257782
2180,000000	2,257649
2179,000000	2,256883
2178,000000	2,256015
2177,000000	2,255584
2176,000000	2,255429
2175,000000	2,255316
2174,000000	2,255479
2173,000000	2,255937
2172,000000	2,256020
2171,000000	2,255294
2170,000000	2,254313
2169,000000	2,253775
2168,000000	2,253561
2167,000000	2,253228
2166,000000	2,252780
2165,000000	2,252320
2164,000000	2,251608
2163,000000	2,250670
2162,000000	2,250159
2161,000000	2,250434
2160,000000	2,250892
2159,000000	2,250862
2158,000000	2,250520
2157,000000	2,250311
2156,000000	2,250163
2155,000000	2,249925
2154,000000	2,249878
2153,000000	2,250119
2152,000000	2,250113
2151,000000	2,249552
2150,000000	2,248970
2149,000000	2,248861
2148,000000	2,248889
2147,000000	2,248670
2146,000000	2,248545
2145,000000	2,248834
2144,000000	2,249042
2143,000000	2,248614
2142,000000	2,247811
2141,000000	2,247049
2140,000000	2,246101
2139,000000	2,244765
2138,000000	2,243686
2137,000000	2,243620
2136,000000	2,244402
2135,000000	2,245348
2134,000000	2,246148
2133,000000	2,246693
2132,000000	2,246686
2131,000000	2,246183
2130,000000	2,245912
2129,000000	2,246301
2128,000000	2,246795
2127,000000	2,246797
2126,000000	2,246610
2125,000000	2,246766
2124,000000	2,247095
2123,000000	2,247225
2122,000000	2,247356
2121,000000	2,247753
2120,000000	2,248019
2119,000000	2,247621
2118,000000	2,246644
2117,000000	2,245485
2116,000000	2,244392
2115,000000	2,243812
2114,000000	2,244412
2113,000000	2,246118
2112,000000	2,247839
2111,000000	2,248765
2110,000000	2,249234
2109,000000	2,249772
2108,000000	2,250187
2107,000000	2,250247
2106,000000	2,250374
2105,000000	2,250881
2104,000000	2,251316
2103,000000	2,251307
2102,000000	2,251285
2101,000000	2,251669
2100,000000	2,252102
2099,000000	2,252233
2098,000000	2,252459
2097,000000	2,253194
2096,000000	2,254079
2095,000000	2,254499
2094,000000	2,254144
2093,000000	2,252688
2092,000000	2,250014
2091,000000	2,247272
2090,000000	2,246482
2089,000000	2,248292
2088,000000	2,251187
2087,000000	2,253507
2086,000000	2,255142
2085,000000	2,256518
2084,000000	2,257328
2083,000000	2,257289
2082,000000	2,256963
2081,000000	2,256813
2080,000000	2,256483
2079,000000	2,255902
2078,000000	2,255875
2077,000000	2,256686
2076,000000	2,257344
2075,000000	2,257207
2074,000000	2,257074
2073,000000	2,257693
2072,000000	2,258537
2071,000000	2,258992
2070,000000	2,259110
2069,000000	2,258053
2068,000000	2,253865
2067,000000	2,246760
2066,000000	2,240974
2065,000000	2,240869
2064,000000	2,246050
2063,000000	2,252302
2062,000000	2,256605
2061,000000	2,259106
2060,000000	2,260927
2059,000000	2,262432
2058,000000	2,263703
2057,000000	2,264877
2056,000000	2,265636
2055,000000	2,265584
2054,000000	2,265087
2053,000000	2,264804
2052,000000	2,264726
2051,000000	2,264595
2050,000000	2,264718
2049,000000	2,265366
2048,000000	2,265930
2047,000000	2,265609
2046,000000	2,264203
2045,000000	2,261494
2044,000000	2,257107
2043,000000	2,252213
2042,000000	2,249983
2041,000000	2,252519
2040,000000	2,258143
2039,000000	2,263294
2038,000000	2,266390
2037,000000	2,268207
2036,000000	2,269545
2035,000000	2,270505
2034,000000	2,271473
2033,000000	2,272817
2032,000000	2,273822
2031,000000	2,273515
2030,000000	2,272295
2029,000000	2,271356
2028,000000	2,270902
2027,000000	2,270350
2026,000000	2,269782
2025,000000	2,269790
2024,000000	2,270272
2023,000000	2,270425
2022,000000	2,269067
2021,000000	2,264086
2020,000000	2,253561
2019,000000	2,239702
2018,000000	2,230118
2017,000000	2,231838
2016,000000	2,244015
2015,000000	2,258877
2014,000000	2,269638
2013,000000	2,274977
2012,000000	2,276605
2011,000000	2,276048
2010,000000	2,274706
2009,000000	2,274232
2008,000000	2,275107
2007,000000	2,276342
2006,000000	2,277316
2005,000000	2,278378
2004,000000	2,279312
2003,000000	2,279099
2002,000000	2,277662
2001,000000	2,276130
2000,000000	2,275192
1999,000000	2,274940
1998,000000	2,275734
1997,000000	2,275966
1996,000000	2,269278
1995,000000	2,249245
1994,000000	2,219504
1993,000000	2,195361
1992,000000	2,190729
1991,000000	2,204806
1990,000000	2,225128
1989,000000	2,241736
1988,000000	2,254018
1987,000000	2,264896
1986,000000	2,274107
1985,000000	2,279632
1984,000000	2,281825
1983,000000	2,282878
1982,000000	2,283819
1981,000000	2,284341
1980,000000	2,284466
1979,000000	2,284510
1978,000000	2,284307
1977,000000	2,283770
1976,000000	2,283520
1975,000000	2,284004
1974,000000	2,284766
1973,000000	2,285001
1972,000000	2,282977
1971,000000	2,274606
1970,000000	2,256215
1969,000000	2,231676
1968,000000	2,213969
1967,000000	2,214867
1966,000000	2,233124
1965,000000	2,255856
1964,000000	2,271436
1963,000000	2,277973
1962,000000	2,279859
1961,000000	2,280840
1960,000000	2,281975
1959,000000	2,282795
1958,000000	2,282130
1957,000000	2,279631
1956,000000	2,277477
1955,000000	2,278659
1954,000000	2,282996
1953,000000	2,287326
1952,000000	2,289698
1951,000000	2,290315
1950,000000	2,288499
1949,000000	2,282478
1948,000000	2,272209
1947,000000	2,257500
1946,000000	2,233731
1945,000000	2,197630
1944,000000	2,160352
1943,000000	2,145839
1942,000000	2,168170
1941,000000	2,214801
1940,000000	2,258726
1939,000000	2,284253
1938,000000	2,294501
1937,000000	2,298142
1936,000000	2,298821
1935,000000	2,297470
1934,000000	2,296302
1933,000000	2,296866
1932,000000	2,298307
1931,000000	2,299526
1930,000000	2,300866
1929,000000	2,302428
1928,000000	2,301637
1927,000000	2,292323
1926,000000	2,267667
1925,000000	2,229615
1924,000000	2,195167
1923,000000	2,183276
1922,000000	2,189903
1921,000000	2,186936
1920,000000	2,157156
1919,000000	2,122372
1918,000000	2,122075
1917,000000	2,166797
1916,000000	2,227910
1915,000000	2,271932
1914,000000	2,288661
1913,000000	2,284088
1912,000000	2,264851
1911,000000	2,239988
1910,000000	2,224661
1909,000000	2,228903
1908,000000	2,247094
1907,000000	2,266469
1906,000000	2,280883
1905,000000	2,290867
1904,000000	2,296628
1903,000000	2,298498
1902,000000	2,299838
1901,000000	2,302766
1900,000000	2,303376
1899,000000	2,295733
1898,000000	2,278711
1897,000000	2,257704
1896,000000	2,242413
1895,000000	2,241101
1894,000000	2,249607
1893,000000	2,247420
1892,000000	2,217393
1891,000000	2,172272
1890,000000	2,148965
1889,000000	2,168854
1888,000000	2,214801
1887,000000	2,254300
1886,000000	2,274376
1885,000000	2,283757
1884,000000	2,291170
1883,000000	2,296738
1882,000000	2,299683
1881,000000	2,301589
1880,000000	2,302285
1879,000000	2,301087
1878,000000	2,300424
1877,000000	2,302416
1876,000000	2,304628
1875,000000	2,302683
1874,000000	2,290917
1873,000000	2,255483
1872,000000	2,180036
1871,000000	2,071746
1870,000000	1,974606
1869,000000	1,939523
1868,000000	1,980531
1867,000000	2,067855
1866,000000	2,159533
1865,000000	2,229392
1864,000000	2,269367
1863,000000	2,283317
1862,000000	2,283189
1861,000000	2,281260
1860,000000	2,281542
1859,000000	2,282586
1858,000000	2,285694
1857,000000	2,292875
1856,000000	2,300127
1855,000000	2,302000
1854,000000	2,300643
1853,000000	2,300368
1852,000000	2,295993
1851,000000	2,278603
1850,000000	2,248887
1849,000000	2,210767
1848,000000	2,153520
1847,000000	2,061445
1846,000000	1,950193
1845,000000	1,876245
1844,000000	1,891830
1843,000000	1,992501
1842,000000	2,118963
1841,000000	2,209426
1840,000000	2,243943
1839,000000	2,242688
1838,000000	2,234656
1837,000000	2,235007
1836,000000	2,244069
1835,000000	2,251320
1834,000000	2,235016
1833,000000	2,172215
1832,000000	2,067466
1831,000000	1,969030
1830,000000	1,934115
1829,000000	1,968848
1828,000000	2,019020
1827,000000	2,034890
1826,000000	2,027538
1825,000000	2,045149
1824,000000	2,106180
1823,000000	2,180836
1822,000000	2,233808
1821,000000	2,257621
1820,000000	2,262135
1819,000000	2,255790
1818,000000	2,247657
1817,000000	2,248489
1816,000000	2,256604
1815,000000	2,253297
1814,000000	2,223425
1813,000000	2,175005
1812,000000	2,131876
1811,000000	2,113744
1810,000000	2,125991
1809,000000	2,160090
1808,000000	2,198097
1807,000000	2,222175
1806,000000	2,223643
1805,000000	2,200429
1804,000000	2,150879
1803,000000	2,081401
1802,000000	2,017028
1801,000000	1,988475
1800,000000	2,004256
1799,000000	2,044751
1798,000000	2,082868
1797,000000	2,095557
1796,000000	2,060560
1795,000000	1,967869
1794,000000	1,847939
1793,000000	1,767775
1792,000000	1,781478
1791,000000	1,884645
1790,000000	2,021549
1789,000000	2,128762
1788,000000	2,171077
1787,000000	2,155220
1786,000000	2,120242
1785,000000	2,102669
1784,000000	2,103048
1783,000000	2,095719
1782,000000	2,072724
1781,000000	2,059185
1780,000000	2,076231
1779,000000	2,108598
1778,000000	2,121903
1777,000000	2,093205
1776,000000	2,012033
1775,000000	1,877591
1774,000000	1,721920
1773,000000	1,615385
1772,000000	1,612585
1771,000000	1,694494
1770,000000	1,793272
1769,000000	1,871649
1768,000000	1,947885
1767,000000	2,038200
1766,000000	2,108717
1765,000000	2,108124
1764,000000	2,033853
1763,000000	1,945723
1762,000000	1,911144
1761,000000	1,942279
1760,000000	1,990720
1759,000000	2,003368
1758,000000	1,982199
1757,000000	1,976634
1756,000000	2,010619
1755,000000	2,038577
1754,000000	1,993588
1753,000000	1,870233
1752,000000	1,733787
1751,000000	1,650573
1750,000000	1,637280
1749,000000	1,676134
1748,000000	1,745449
1747,000000	1,820605
1746,000000	1,873082
1745,000000	1,890813
1744,000000	1,884909
1743,000000	1,863876
1742,000000	1,822998
1741,000000	1,775974
1740,000000	1,765581
1739,000000	1,806097
1738,000000	1,830258
1737,000000	1,747154
1736,000000	1,559884
1735,000000	1,389203
1734,000000	1,357021
1733,000000	1,469634
1732,000000	1,636291
1731,000000	1,776935
1730,000000	1,880768
1729,000000	1,970012
1728,000000	2,046225
1727,000000	2,089129
1726,000000	2,090271
1725,000000	2,068062
1724,000000	2,048826
1723,000000	2,032570
1722,000000	1,982197
1721,000000	1,852523
1720,000000	1,645516
1719,000000	1,432789
1718,000000	1,307453
1717,000000	1,310026
1716,000000	1,410072
1715,000000	1,553857
1714,000000	1,706089
1713,000000	1,842802
1712,000000	1,936152
1711,000000	1,969777
1710,000000	1,952018
1709,000000	1,895380
1708,000000	1,803174
1707,000000	1,697573
1706,000000	1,631203
1705,000000	1,624324
1704,000000	1,609559
1703,000000	1,496508
1702,000000	1,299866
1701,000000	1,147543
1700,000000	1,132588
1699,000000	1,206387
1698,000000	1,260833
1697,000000	1,276969
1696,000000	1,336428
1695,000000	1,494678
1694,000000	1,699328
1693,000000	1,847957
1692,000000	1,890488
1691,000000	1,859316
1690,000000	1,812843
1689,000000	1,767540
1688,000000	1,680737
1687,000000	1,506983
1686,000000	1,280127
1685,000000	1,119600
1684,000000	1,128072
1683,000000	1,290349
1682,000000	1,496684
1681,000000	1,656988
1680,000000	1,751439
1679,000000	1,780275
1678,000000	1,729344
1677,000000	1,615559
1676,000000	1,517389
1675,000000	1,505240
1674,000000	1,556463
1673,000000	1,579355
1672,000000	1,523429
1671,000000	1,434690
1670,000000	1,401704
1669,000000	1,471041
1668,000000	1,613784
1667,000000	1,749718
1666,000000	1,801766
1665,000000	1,752137
1664,000000	1,661732
1663,000000	1,620149
1662,000000	1,664949
1661,000000	1,757721
1660,000000	1,834425
1659,000000	1,856311
1658,000000	1,803180
1657,000000	1,647718
1656,000000	1,382872
1655,000000	1,079220
1654,000000	0,878607
1653,000000	0,889956
1652,000000	1,083330
1651,000000	1,303266
1650,000000	1,396679
1649,000000	1,337109
1648,000000	1,226856
1647,000000	1,193680
1646,000000	1,287656
1645,000000	1,462962
1644,000000	1,633373
1643,000000	1,740648
1642,000000	1,777008
1641,000000	1,759404
1640,000000	1,691062
1639,000000	1,558884
1638,000000	1,375075
1637,000000	1,208830
1636,000000	1,153453
1635,000000	1,249218
1634,000000	1,443791
1633,000000	1,634441
1632,000000	1,742598
1631,000000	1,752972
1630,000000	1,702058
1629,000000	1,643170
1628,000000	1,609898
1627,000000	1,594721
1626,000000	1,563858
1625,000000	1,506280
1624,000000	1,461873
1623,000000	1,483137
1622,000000	1,566588
1621,000000	1,637513
1620,000000	1,616283
1619,000000	1,498041
1618,000000	1,362242
1617,000000	1,307717
1616,000000	1,373500
1615,000000	1,514379
1614,000000	1,645621
1613,000000	1,711102
1612,000000	1,713430
1611,000000	1,689468
1610,000000	1,668849
1609,000000	1,661226
1608,000000	1,667333
1607,000000	1,684611
1606,000000	1,702890
1605,000000	1,710236
1604,000000	1,707123
1603,000000	1,706383
1602,000000	1,716287
1601,000000	1,731572
1600,000000	1,743154
1599,000000	1,747391
1598,000000	1,743314
1597,000000	1,730549
1596,000000	1,715213
1595,000000	1,709201
1594,000000	1,717167
1593,000000	1,730220
1592,000000	1,738265
1591,000000	1,742473
1590,000000	1,749320
1589,000000	1,758753
1588,000000	1,765945
1587,000000	1,770287
1586,000000	1,774146
1585,000000	1,775773
1584,000000	1,772137
1583,000000	1,766419
1582,000000	1,761905
1581,000000	1,743839
1580,000000	1,679446
1579,000000	1,549110
1578,000000	1,384615
1577,000000	1,266928
1576,000000	1,269461
1575,000000	1,388933
1574,000000	1,532722
1573,000000	1,590120
1572,000000	1,527994
1571,000000	1,416579
1570,000000	1,357845
1569,000000	1,392352
1568,000000	1,476476
1567,000000	1,543040
1566,000000	1,566787
1565,000000	1,564523
1564,000000	1,539673
1563,000000	1,449189
1562,000000	1,248368
1561,000000	0,971346
1560,000000	0,743751
1559,000000	0,686331
1558,000000	0,804778
1557,000000	0,994599
1556,000000	1,153968
1555,000000	1,264743
1554,000000	1,356836
1553,000000	1,434822
1552,000000	1,476624
1551,000000	1,486992
1550,000000	1,501119
1549,000000	1,529532
1548,000000	1,533127
1547,000000	1,472383
1546,000000	1,356542
1545,000000	1,225913
1544,000000	1,101628
1543,000000	0,976584
1542,000000	0,853746
1541,000000	0,775171
1540,000000	0,801260
1539,000000	0,953255
1538,000000	1,171299
1537,000000	1,339808
1536,000000	1,378316
1535,000000	1,316334
1534,000000	1,262526
1533,000000	1,294947
1532,000000	1,391836
1531,000000	1,473168
1530,000000	1,484656
1529,000000	1,431520
1528,000000	1,352521
1527,000000	1,285281
1526,000000	1,242693
1525,000000	1,202460
1524,000000	1,130835
1523,000000	1,034072
1522,000000	0,971598
1521,000000	0,991547
1520,000000	1,067004
1519,000000	1,127623
1518,000000	1,150020
1517,000000	1,178026
1516,000000	1,248632
1515,000000	1,336390
1514,000000	1,389562
1513,000000	1,391283
1512,000000	1,354600
1511,000000	1,277993
1510,000000	1,143354
1509,000000	0,964133
1508,000000	0,811101
1507,000000	0,772664
1506,000000	0,886361
1505,000000	1,105553
1504,000000	1,328866
1503,000000	1,467155
1502,000000	1,493416
1501,000000	1,437412
1500,000000	1,343948
1499,000000	1,246019
1498,000000	1,173227
1497,000000	1,158406
1496,000000	1,215119
1495,000000	1,309623
1494,000000	1,374335
1493,000000	1,359716
1492,000000	1,275962
1491,000000	1,183047
1490,000000	1,141757
1489,000000	1,172279
1488,000000	1,255358
1487,000000	1,361043
1486,000000	1,466551
1485,000000	1,550601
1484,000000	1,593314
1483,000000	1,595762
1482,000000	1,586244
1481,000000	1,588300
1480,000000	1,588503
1479,000000	1,554904
1478,000000	1,481269
1477,000000	1,390639
1476,000000	1,298912
1475,000000	1,204734
1474,000000	1,124655
1473,000000	1,106592
1472,000000	1,185449
1471,000000	1,335518
1470,000000	1,484108
1469,000000	1,565360
1468,000000	1,556249
1467,000000	1,481424
1466,000000	1,400155
1465,000000	1,374178
1464,000000	1,420065
1463,000000	1,489995
1462,000000	1,507565
1461,000000	1,426717
1460,000000	1,258569
1459,000000	1,064061
1458,000000	0,928670
1457,000000	0,920308
1456,000000	1,040140
1455,000000	1,217170
1454,000000	1,366735
1453,000000	1,453072
1452,000000	1,487824
1451,000000	1,487124
1450,000000	1,459630
1449,000000	1,427636
1448,000000	1,426385
1447,000000	1,469701
1446,000000	1,534100
1445,000000	1,585831
1444,000000	1,612550
1443,000000	1,623045
1442,000000	1,624180
1441,000000	1,604375
1440,000000	1,539657
1439,000000	1,423400
1438,000000	1,296553
1437,000000	1,233238
1436,000000	1,275864
1435,000000	1,388068
1434,000000	1,486902
1433,000000	1,521235
1432,000000	1,503913
1431,000000	1,477954
1430,000000	1,474757
1429,000000	1,501054
1428,000000	1,539502
1427,000000	1,557438
1426,000000	1,536619
1425,000000	1,498015
1424,000000	1,475207
1423,000000	1,460356
1422,000000	1,408101
1421,000000	1,304773
1420,000000	1,206238
1419,000000	1,184674
1418,000000	1,253436
1417,000000	1,365264
1416,000000	1,466225
1415,000000	1,531399
1414,000000	1,559355
1413,000000	1,560167
1412,000000	1,551551
1411,000000	1,548584
1410,000000	1,550540
1409,000000	1,543682
1408,000000	1,517378
1407,000000	1,474733
1406,000000	1,433486
1405,000000	1,417300
1404,000000	1,434385
1403,000000	1,459614
1402,000000	1,452076
1401,000000	1,400884
1400,000000	1,340779
1399,000000	1,308540
1398,000000	1,300196
1397,000000	1,288878
1396,000000	1,273248
1395,000000	1,283239
1394,000000	1,337430
1393,000000	1,416046
1392,000000	1,478391
1391,000000	1,494406
1390,000000	1,460473
1389,000000	1,400964
1388,000000	1,357928
1387,000000	1,363015
1386,000000	1,410549
1385,000000	1,465695
1384,000000	1,500353
1383,000000	1,512272
1382,000000	1,511768
1381,000000	1,504980
1380,000000	1,494800
1379,000000	1,483566
1378,000000	1,466271
1377,000000	1,432394
1376,000000	1,384968
1375,000000	1,349590
1374,000000	1,352559
1373,000000	1,392015
1372,000000	1,438426
1371,000000	1,464282
1370,000000	1,467250
1369,000000	1,464441
1368,000000	1,468626
1367,000000	1,471872
1366,000000	1,453915
1365,000000	1,407162
1364,000000	1,351606
1363,000000	1,321302
1362,000000	1,334283
1361,000000	1,378907
1360,000000	1,428470
1359,000000	1,463339
1358,000000	1,479023
1357,000000	1,480759
1356,000000	1,477061
1355,000000	1,475714
1354,000000	1,479558
1353,000000	1,484914
1352,000000	1,486501
1351,000000	1,483677
1350,000000	1,480423
1349,000000	1,480094
1348,000000	1,482369
1347,000000	1,485219
1346,000000	1,487338
1345,000000	1,486743
1344,000000	1,477748
1343,000000	1,452835
1342,000000	1,411338
1341,000000	1,366138
1340,000000	1,338003
1339,000000	1,339855
1338,000000	1,366970
1337,000000	1,403799
1336,000000	1,437291
1335,000000	1,462097
1334,000000	1,477218
1333,000000	1,483401
1332,000000	1,483922
1331,000000	1,483292
1330,000000	1,483598
1329,000000	1,483993
1328,000000	1,483847
1327,000000	1,483838
1326,000000	1,484043
1325,000000	1,483417
1324,000000	1,481020
1323,000000	1,475707
1322,000000	1,465482
1321,000000	1,450286
1320,000000	1,435367
1319,000000	1,428270
1318,000000	1,431225
1317,000000	1,438763
1316,000000	1,443692
1315,000000	1,443993
1314,000000	1,443208
1313,000000	1,445767
1312,000000	1,452772
1311,000000	1,461149
1310,000000	1,466492
1309,000000	1,467366
1308,000000	1,466454
1307,000000	1,466974
1306,000000	1,468980
1305,000000	1,470515
1304,000000	1,471066
1303,000000	1,471666
1302,000000	1,472485
1301,000000	1,472533
1300,000000	1,471594
1299,000000	1,470477
1298,000000	1,469579
1297,000000	1,468876
1296,000000	1,468926
1295,000000	1,470136
1294,000000	1,471359
1293,000000	1,470851
1292,000000	1,468325
1291,000000	1,464702
1290,000000	1,460628
1289,000000	1,456953
1288,000000	1,455635
1287,000000	1,457926
1286,000000	1,462070
1285,000000	1,464894
1284,000000	1,465288
1283,000000	1,464443
1282,000000	1,463273
1281,000000	1,461717
1280,000000	1,460186
1279,000000	1,459434
1278,000000	1,458995
1277,000000	1,457539
1276,000000	1,454589
1275,000000	1,450339
1274,000000	1,444461
1273,000000	1,437011
1272,000000	1,430037
1271,000000	1,425984
1270,000000	1,424626
1269,000000	1,423438
1268,000000	1,420896
1267,000000	1,417573
1266,000000	1,414070
1265,000000	1,409964
1264,000000	1,404975
1263,000000	1,399695
1262,000000	1,395012
1261,000000	1,392123
1260,000000	1,392705
1259,000000	1,397331
1258,000000	1,404001
1257,000000	1,409824
1256,000000	1,413930
1255,000000	1,417311
1254,000000	1,420316
1253,000000	1,422205
1252,000000	1,422907
1251,000000	1,423246
1250,000000	1,423396
1249,000000	1,422788
1248,000000	1,421517
1247,000000	1,420288
1246,000000	1,419140
1245,000000	1,417697
1244,000000	1,416493
1243,000000	1,416372
1242,000000	1,416797
1241,000000	1,416399
1240,000000	1,415064
1239,000000	1,413886
1238,000000	1,413166
1237,000000	1,412179
1236,000000	1,410776
1235,000000	1,409560
1234,000000	1,408479
1233,000000	1,406895
1232,000000	1,405055
1231,000000	1,403897
1230,000000	1,403276
1229,000000	1,401949
1228,000000	1,399461
1227,000000	1,396682
1226,000000	1,394396
1225,000000	1,392666
1224,000000	1,391539
1223,000000	1,390995
1222,000000	1,390197
1221,000000	1,388182
1220,000000	1,385348
1219,000000	1,382996
1218,000000	1,381451
1217,000000	1,379881
1216,000000	1,377799
1215,000000	1,375430
1214,000000	1,372759
1213,000000	1,369681
1212,000000	1,367002
1211,000000	1,365796
1210,000000	1,365742
1209,000000	1,365466
1208,000000	1,364486
1207,000000	1,363501
1206,000000	1,362782
1205,000000	1,361754
1204,000000	1,360270
1203,000000	1,358873
1202,000000	1,357648
1201,000000	1,356095
1200,000000	1,354311
1199,000000	1,353070
1198,000000	1,352577
1197,000000	1,352232
1196,000000	1,351730
1195,000000	1,351279
1194,000000	1,350730
1193,000000	1,349615
1192,000000	1,348075
1191,000000	1,346650
1190,000000	1,345191
1189,000000	1,343105
1188,000000	1,340646
1187,000000	1,338733
1186,000000	1,337423
1185,000000	1,335688
1184,000000	1,332785
1183,000000	1,328895
1182,000000	1,324481
1181,000000	1,320107
1180,000000	1,316789
1179,000000	1,315275
1178,000000	1,314847
1177,000000	1,313912
1176,000000	1,311881
1175,000000	1,309494
1174,000000	1,307383
1173,000000	1,305388
1172,000000	1,303292
1171,000000	1,301084
1170,000000	1,298416
1169,000000	1,294820
1168,000000	1,290627
1167,000000	1,286699
1166,000000	1,283178
1165,000000	1,279432
1164,000000	1,275234
1163,000000	1,271100
1162,000000	1,267396
1161,000000	1,264049
1160,000000	1,261138
1159,000000	1,258881
1158,000000	1,256991
1157,000000	1,254857
1156,000000	1,252402
1155,000000	1,250006
1154,000000	1,247729
1153,000000	1,245379
1152,000000	1,243144
1151,000000	1,241298
1150,000000	1,239443
1149,000000	1,236972
1148,000000	1,234116
1147,000000	1,231640
1146,000000	1,229682
1145,000000	1,227817
1144,000000	1,226066
1143,000000	1,224848
1142,000000	1,224048
1141,000000	1,223144
1140,000000	1,222122
1139,000000	1,221302
1138,000000	1,220386
1137,000000	1,218659
1136,000000	1,216106
1135,000000	1,213408
1134,000000	1,210866
1133,000000	1,208220
1132,000000	1,205417
1131,000000	1,202620
1130,000000	1,199573
1129,000000	1,195843
1128,000000	1,191644
1127,000000	1,187569
1126,000000	1,183622
1125,000000	1,179389
1124,000000	1,174977
1123,000000	1,170841
1122,000000	1,166819
1121,000000	1,162302
1120,000000	1,157285
1119,000000	1,152347
1118,000000	1,147675
1117,000000	1,143018
1116,000000	1,138458
1115,000000	1,134272
1114,000000	1,130123
1113,000000	1,125395
1112,000000	1,120311
1111,000000	1,115781
1110,000000	1,112141
1109,000000	1,108929
1108,000000	1,105890
1107,000000	1,103233
1106,000000	1,100914
1105,000000	1,098550
1104,000000	1,096104
1103,000000	1,093896
1102,000000	1,091904
1101,000000	1,089828
1100,000000	1,087777
1099,000000	1,086088
1098,000000	1,084574
1097,000000	1,082752
1096,000000	1,080716
1095,000000	1,078948
1094,000000	1,077334
1093,000000	1,075310
1092,000000	1,072890
1091,000000	1,070685
1090,000000	1,068872
1089,000000	1,067009
1088,000000	1,064895
1087,000000	1,062798
1086,000000	1,060797
1085,000000	1,058670
1084,000000	1,056468
1083,000000	1,054493
1082,000000	1,052736
1081,000000	1,051021
1080,000000	1,049592
1079,000000	1,048782
1078,000000	1,048278
1077,000000	1,047503
1076,000000	1,046619
1075,000000	1,046330
1074,000000	1,046716
1073,000000	1,047165
1072,000000	1,047410
1071,000000	1,047773
1070,000000	1,048346
1069,000000	1,048801
1068,000000	1,049092
1067,000000	1,049597
1066,000000	1,050424
1065,000000	1,051260
1064,000000	1,051974
1063,000000	1,052733
1062,000000	1,053532
1061,000000	1,054199
1060,000000	1,054797
1059,000000	1,055388
1058,000000	1,055452
1057,000000	1,054189
1056,000000	1,051381
1055,000000	1,047334
1054,000000	1,042295
1053,000000	1,036709
1052,000000	1,031993
1051,000000	1,030087
1050,000000	1,032166
1049,000000	1,038129
1048,000000	1,047116
1047,000000	1,057868
1046,000000	1,068717
1045,000000	1,078321
1044,000000	1,086473
1043,000000	1,093658
1042,000000	1,099956
1041,000000	1,105063
1040,000000	1,109155
1039,000000	1,112863
1038,000000	1,116439
1037,000000	1,119687
1036,000000	1,122728
1035,000000	1,125988
1034,000000	1,129449
1033,000000	1,132668
1032,000000	1,135544
1031,000000	1,138378
1030,000000	1,141239
1029,000000	1,143983
1028,000000	1,146833
1027,000000	1,150159
1026,000000	1,153721
1025,000000	1,156892
1024,000000	1,159667
1023,000000	1,162665
1022,000000	1,166167
1021,000000	1,169912
1020,000000	1,173838
1019,000000	1,178202
1018,000000	1,182850
1017,000000	1,187204
1016,000000	1,191135
1015,000000	1,195201
1014,000000	1,199834
1013,000000	1,204899
1012,000000	1,210180
1011,000000	1,215642
1010,000000	1,221100
1009,000000	1,226215
1008,000000	1,230956
1007,000000	1,235563
1006,000000	1,239983
1005,000000	1,243856
1004,000000	1,247079
1003,000000	1,249887
1002,000000	1,252378
1001,000000	1,254482
1000,000000	1,256377
999,000000	1,258345
998,000000	1,260262
997,000000	1,261749
996,000000	1,262768
995,000000	1,263568
994,000000	1,264088
993,000000	1,264095
992,000000	1,263776
991,000000	1,263564
990,000000	1,263410
989,000000	1,262861
988,000000	1,261830
987,000000	1,260653
986,000000	1,259404
985,000000	1,257843
984,000000	1,256030
983,000000	1,254347
982,000000	1,252848
981,000000	1,251193
980,000000	1,249273
979,000000	1,247291
978,000000	1,245242
977,000000	1,242906
976,000000	1,240394
975,000000	1,238089
974,000000	1,236017
973,000000	1,233844
972,000000	1,231510
971,000000	1,229239
970,000000	1,226927
969,000000	1,224154
968,000000	1,220896
967,000000	1,217647
966,000000	1,214721
965,000000	1,211995
964,000000	1,209322
963,000000	1,206671
962,000000	1,203829
961,000000	1,200562
960,000000	1,197102
959,000000	1,193935
958,000000	1,191059
957,000000	1,188008
956,000000	1,184598
955,000000	1,181071
954,000000	1,177557
953,000000	1,173991
952,000000	1,170590
951,000000	1,167705
950,000000	1,165153
949,000000	1,162305
948,000000	1,158978
947,000000	1,155622
946,000000	1,152532
945,000000	1,149474
944,000000	1,146246
943,000000	1,143024
942,000000	1,139957
941,000000	1,136940
940,000000	1,133940
939,000000	1,131085
938,000000	1,128285
937,000000	1,125239
936,000000	1,121899
935,000000	1,118516
934,000000	1,115159
933,000000	1,111678
932,000000	1,108192
931,000000	1,105099
930,000000	1,102484
929,000000	1,099950
928,000000	1,097154
927,000000	1,094112
926,000000	1,090951
925,000000	1,087750
924,000000	1,084667
923,000000	1,081766
922,000000	1,078748
921,000000	1,075275
920,000000	1,071552
919,000000	1,068105
918,000000	1,064978
917,000000	1,061691
916,000000	1,057990
915,000000	1,054126
914,000000	1,050304
913,000000	1,046416
912,000000	1,042422
911,000000	1,038521
910,000000	1,034797
909,000000	1,031114
908,000000	1,027462
907,000000	1,024032
906,000000	1,020878
905,000000	1,017858
904,000000	1,014930
903,000000	1,012116
902,000000	1,009206
901,000000	1,005938
900,000000	1,002476
899,000000	0,999252
898,000000	0,996354
897,000000	0,993513
896,000000	0,990666
895,000000	0,988020
894,000000	0,985536
893,000000	0,982861
892,000000	0,979840
891,000000	0,976637
890,000000	0,973265
889,000000	0,969498
888,000000	0,965306
887,000000	0,960922
886,000000	0,956384
885,000000	0,951419
884,000000	0,945912
883,000000	0,940063
882,000000	0,934030
881,000000	0,927868
880,000000	0,921884
879,000000	0,916611
878,000000	0,912307
877,000000	0,908845
876,000000	0,906120
875,000000	0,904220
874,000000	0,903102
873,000000	0,902549
872,000000	0,902518
871,000000	0,903077
870,000000	0,903973
869,000000	0,904659
868,000000	0,904868
867,000000	0,904762
866,000000	0,904410
865,000000	0,903575
864,000000	0,902137
863,000000	0,900332
862,000000	0,898370
861,000000	0,896201
860,000000	0,893772
859,000000	0,891207
858,000000	0,888569
857,000000	0,885747
856,000000	0,882727
855,000000	0,879683
854,000000	0,876703
853,000000	0,873699
852,000000	0,870683
851,000000	0,867841
850,000000	0,865247
849,000000	0,862789
848,000000	0,860453
847,000000	0,858361
846,000000	0,856440
845,000000	0,854370
844,000000	0,852016
843,000000	0,849640
842,000000	0,847550
841,000000	0,845731
840,000000	0,843921
839,000000	0,841856
838,000000	0,839404
837,000000	0,836620
836,000000	0,833705
835,000000	0,830705
834,000000	0,827251
833,000000	0,822834
832,000000	0,817326
831,000000	0,811020
830,000000	0,804235
829,000000	0,797188
828,000000	0,790293
827,000000	0,784264
826,000000	0,779821
825,000000	0,777418
824,000000	0,777284
823,000000	0,779365
822,000000	0,783168
821,000000	0,787871
820,000000	0,792693
819,000000	0,797125
818,000000	0,800806
817,000000	0,803497
816,000000	0,805165
815,000000	0,805955
814,000000	0,805991
813,000000	0,805351
812,000000	0,804176
811,000000	0,802598
810,000000	0,800628
809,000000	0,798250
808,000000	0,795609
807,000000	0,792918
806,000000	0,790233
805,000000	0,787528
804,000000	0,784884
803,000000	0,782401
802,000000	0,779993
801,000000	0,777551
800,000000	0,775254
799,000000	0,773452
798,000000	0,772258
797,000000	0,771466
796,000000	0,770879
795,000000	0,770462
794,000000	0,770218
793,000000	0,770146
792,000000	0,770325
791,000000	0,770807
790,000000	0,771399
789,000000	0,771753
788,000000	0,771737
787,000000	0,771546
786,000000	0,771433
785,000000	0,771437
784,000000	0,771383
783,000000	0,770996
782,000000	0,770063
781,000000	0,768644
780,000000	0,767098
779,000000	0,765758
778,000000	0,764612
777,000000	0,763409
776,000000	0,761997
775,000000	0,760414
774,000000	0,758748
773,000000	0,757093
772,000000	0,755572
771,000000	0,754208
770,000000	0,752778
769,000000	0,750998
768,000000	0,748838
767,000000	0,746527
766,000000	0,744270
765,000000	0,742093
764,000000	0,739918
763,000000	0,737611
762,000000	0,735014
761,000000	0,732106
760,000000	0,729143
759,000000	0,726444
758,000000	0,724037
757,000000	0,721674
756,000000	0,719216
755,000000	0,716793
754,000000	0,714506
753,000000	0,712141
752,000000	0,709370
751,000000	0,706205
750,000000	0,703016
749,000000	0,700049
748,000000	0,697072
747,000000	0,693670
746,000000	0,689810
745,000000	0,685886
744,000000	0,682213
743,000000	0,678716
742,000000	0,675233
741,000000	0,671857
740,000000	0,668753
739,000000	0,665807
738,000000	0,662679
737,000000	0,659158
736,000000	0,655287
735,000000	0,651239
734,000000	0,647205
733,000000	0,643303
732,000000	0,639458
731,000000	0,635498
730,000000	0,631421
729,000000	0,627363
728,000000	0,623273
727,000000	0,618986
726,000000	0,614630
725,000000	0,610320
724,000000	0,605189
723,000000	0,597692
722,000000	0,587857
721,000000	0,578632
720,000000	0,573741
719,000000	0,573968
718,000000	0,576401
717,000000	0,577447
716,000000	0,575746
715,000000	0,572100
714,000000	0,567657
713,000000	0,562929
712,000000	0,558016
711,000000	0,552954
710,000000	0,547768
709,000000	0,542486
708,000000	0,537130
707,000000	0,531670
706,000000	0,526142
705,000000	0,520738
704,000000	0,515558
703,000000	0,510315
702,000000	0,504572
701,000000	0,498191
700,000000	0,491318
699,000000	0,484095
698,000000	0,476722
697,000000	0,469551
696,000000	0,462718
695,000000	0,455847
694,000000	0,448481
693,000000	0,440566
692,000000	0,432193
691,000000	0,423308
690,000000	0,414219
689,000000	0,405919
688,000000	0,399216
687,000000	0,393866
686,000000	0,389136
685,000000	0,384809
684,000000	0,380946
683,000000	0,377236
682,000000	0,373373
681,000000	0,369613
680,000000	0,366170
679,000000	0,362694
678,000000	0,359070
677,000000	0,355932
676,000000	0,353584
675,000000	0,351495
674,000000	0,349087
673,000000	0,344335
672,000000	0,330362
671,000000	0,298463
670,000000	0,250880
669,000000	0,208439
668,000000	0,197292
667,000000	0,223821
666,000000	0,266982
665,000000	0,298829
664,000000	0,308264
663,000000	0,303027
662,000000	0,294086
661,000000	0,285269
660,000000	0,276293
659,000000	0,267668
658,000000	0,260086
657,000000	0,252872
656,000000	0,245481
655,000000	0,238582
654,000000	0,232549
653,000000	0,226597
652,000000	0,220285
651,000000	0,214327
650,000000	0,209279
649,000000	0,204874
648,000000	0,201101
647,000000	0,198478
646,000000	0,196788
645,000000	0,194953
644,000000	0,192559
643,000000	0,190336
642,000000	0,188710
641,000000	0,187181
640,000000	0,185431
639,000000	0,183832
638,000000	0,182487
637,000000	0,180943
636,000000	0,179255
635,000000	0,178162
634,000000	0,177831
633,000000	0,177480
632,000000	0,176672
631,000000	0,175898
630,000000	0,175520
629,000000	0,175109
628,000000	0,174314
627,000000	0,173441
626,000000	0,172752
625,000000	0,172047
624,000000	0,171345
623,000000	0,171079
622,000000	0,171167
621,000000	0,170691
620,000000	0,169035
619,000000	0,166782
618,000000	0,165051
617,000000	0,164493
616,000000	0,165122
615,000000	0,166485
614,000000	0,167732
613,000000	0,168107
612,000000	0,167658
611,000000	0,167013
610,000000	0,166387
609,000000	0,165410
608,000000	0,164003
607,000000	0,162669
606,000000	0,161763
605,000000	0,161102
604,000000	0,160484
603,000000	0,159910
602,000000	0,159202
601,000000	0,158030
600,000000	0,156520
599,000000	0,155171
598,000000	0,154077
597,000000	0,152826
596,000000	0,151235
595,000000	0,149531
594,000000	0,147721
593,000000	0,145576
592,000000	0,143361
591,000000	0,141806
590,000000	0,141059
589,000000	0,140368
588,000000	0,139049
587,000000	0,137179
586,000000	0,135117
585,000000	0,132903
584,000000	0,130466
583,000000	0,127897
582,000000	0,125323
581,000000	0,122830
580,000000	0,120582
579,000000	0,118589
578,000000	0,116473
577,000000	0,113988
576,000000	0,111646
575,000000	0,110129
574,000000	0,109189
573,000000	0,107838
572,000000	0,105674
571,000000	0,103209
570,000000	0,100878
569,000000	0,098579
568,000000	0,096277
567,000000	0,094268
566,000000	0,092566
565,000000	0,090819
564,000000	0,088997
563,000000	0,087488
562,000000	0,086262
561,000000	0,084731
560,000000	0,082650
559,000000	0,080472
558,000000	0,078534
557,000000	0,076600
556,000000	0,074494
555,000000	0,072499
554,000000	0,070796
553,000000	0,069121
552,000000	0,067306
551,000000	0,065574
550,000000	0,064022
549,000000	0,062385
548,000000	0,060594
547,000000	0,059014
546,000000	0,057842
545,000000	0,056793
544,000000	0,055643
543,000000	0,054556
542,000000	0,053621
541,000000	0,052612
540,000000	0,051431
539,000000	0,050280
538,000000	0,049175
537,000000	0,047852
536,000000	0,046326
535,000000	0,045025
534,000000	0,044106
533,000000	0,043233
532,000000	0,042245
531,000000	0,041402
530,000000	0,040731
529,000000	0,039758
528,000000	0,038228
527,000000	0,036607
526,000000	0,035515
525,000000	0,035033
524,000000	0,034877
523,000000	0,034793
522,000000	0,034469
521,000000	0,033552
520,000000	0,032109
519,000000	0,030721
518,000000	0,029848
517,000000	0,029442
516,000000	0,029323
515,000000	0,029505
514,000000	0,029887
513,000000	0,030095
512,000000	0,029925
511,000000	0,029599
510,000000	0,029358
509,000000	0,029184
508,000000	0,029087
507,000000	0,029198
506,000000	0,029382
505,000000	0,029251
504,000000	0,028802
503,000000	0,028591
502,000000	0,028996
501,000000	0,029758
500,000000	0,030476
499,000000	0,031110
498,000000	0,031722
497,000000	0,032166
496,000000	0,032368
495,000000	0,032547
494,000000	0,032885
493,000000	0,033303
492,000000	0,033779
491,000000	0,034523
490,000000	0,035582
489,000000	0,036644
488,000000	0,037464
487,000000	0,038163
486,000000	0,038946
485,000000	0,039901
484,000000	0,041222
483,000000	0,043211
482,000000	0,045754
481,000000	0,048195
480,000000	0,050003
479,000000	0,051274
478,000000	0,052383
477,000000	0,053410
476,000000	0,054156
475,000000	0,054532
474,000000	0,054809
473,000000	0,055616
472,000000	0,057601
471,000000	0,060718
470,000000	0,063985
469,000000	0,066442
468,000000	0,068328
467,000000	0,070640
466,000000	0,073590
465,000000	0,076288
464,000000	0,078114
463,000000	0,079476
462,000000	0,080683
461,000000	0,080963
460,000000	0,079592
459,000000	0,077660
458,000000	0,077667
457,000000	0,081034
456,000000	0,086526
455,000000	0,091426
454,000000	0,094190
453,000000	0,095642
452,000000	0,097535
451,000000	0,100343
450,000000	0,102859
449,000000	0,103952
448,000000	0,103953
447,000000	0,103862
446,000000	0,103869
445,000000	0,103460
444,000000	0,102767
443,000000	0,102870
442,000000	0,104571
441,000000	0,107434
440,000000	0,110114
439,000000	0,111333
438,000000	0,110691
437,000000	0,109057
436,000000	0,108034
435,000000	0,108424
434,000000	0,109383
433,000000	0,109644
432,000000	0,109188
431,000000	0,108947
430,000000	0,109103
429,000000	0,108769
428,000000	0,107271
427,000000	0,104761
426,000000	0,101665
425,000000	0,098434
424,000000	0,095610
423,000000	0,092853
422,000000	0,088186
421,000000	0,080173
420,000000	0,071326
419,000000	0,067223
418,000000	0,070937
417,000000	0,079507
416,000000	0,087065
415,000000	0,090390
414,000000	0,090193
413,000000	0,088336
412,000000	0,085843
411,000000	0,083260
410,000000	0,081106
409,000000	0,079407
408,000000	0,077737
407,000000	0,075917
406,000000	0,074107
405,000000	0,072184
404,000000	0,069674
403,000000	0,066239
402,000000	0,061691
401,000000	0,055835
400,000000	0,049055
399,000000	0,042921
398,000000	0,039315
397,000000	0,038768
396,000000	0,040155
395,000000	0,042014
394,000000	0,043614
393,000000	0,044709
392,000000	0,045075
391,000000	0,044590
390,000000	0,043370
389,000000	0,041499
388,000000	0,038891
387,000000	0,035599
386,000000	0,032150
385,000000	0,029406
384,000000	0,028016
383,000000	0,027919
382,000000	0,028342
381,000000	0,028349
380,000000	0,027387
379,000000	0,025314
378,000000	0,022165
377,000000	0,018443
376,000000	0,015425
375,000000	0,014392
374,000000	0,015230
373,000000	0,016332
372,000000	0,016251
371,000000	0,015047
370,000000	0,013693
369,000000	0,012781
368,000000	0,012247
367,000000	0,011912
366,000000	0,011645
365,000000	0,011292
364,000000	0,010831
363,000000	0,010317
362,000000	0,009660
361,000000	0,008590
360,000000	0,007073
359,000000	0,005671
358,000000	0,004918
357,000000	0,004672
356,000000	0,004498
355,000000	0,004315
354,000000	0,004256
353,000000	0,004196
352,000000	0,003973
351,000000	0,003799
350,000000	0,003859
349,000000	0,003886
348,000000	0,003598
347,000000	0,003049
346,000000	0,002480
345,000000	0,001952
344,000000	0,001441
343,000000	0,001179
342,000000	0,001232
341,000000	0,001410
340,000000	0,001589
339,000000	0,001658
338,000000	0,001461
337,000000	0,000982
336,000000	0,000791
335,000000	0,000828
334,000000	0,000469
333,000000	0,000252
332,000000	0,000610
331,000000	0,000989
330,000000	0,001233
329,000000	0,001010
328,000000	0,000376
327,000000	0,000147
326,000000	0,000281
325,000000	0,000156
324,000000	0,000320
323,000000	0,000916
322,000000	0,001357
321,000000	0,001606
320,000000	0,001594
319,000000	0,001080
318,000000	0,000171
317,000000	0,000486
316,000000	0,000423
315,000000	0,000329
314,000000	0,000239
313,000000	0,000193
312,000000	0,000367
311,000000	0,000369
310,000000	0,000469
309,000000	0,000926
308,000000	0,001290
307,000000	0,001289
306,000000	0,000942
305,000000	0,000483
304,000000	0,000611
303,000000	0,000725
302,000000	0,000711
301,000000	0,000879
300,000000	0,000932
