PE IR       SUBTECH     SPECTRUM    ASCII       PEDS        4.00        
   -1
REF Silicon.ASC
25/06/17
10:44:32.00
25/06/17
10:44:32.00
Praktikum
Sample 027 By Praktikum date Dienstag, Juni 17 2025
300,000000
#HDR
-1
-1
#GR
cm-1
EGY
1.0
0.0
4000,000000
-1,000000
3701
8
1,858581
0,000087
#DATA
4000,000000	0,687172
3999,000000	0,686926
3998,000000	0,686378
3997,000000	0,685825
3996,000000	0,685453
3995,000000	0,685290
3994,000000	0,685257
3993,000000	0,685341
3992,000000	0,685714
3991,000000	0,686592
3990,000000	0,687965
3989,000000	0,689492
3988,000000	0,690736
3987,000000	0,691472
3986,000000	0,691766
3985,000000	0,691861
3984,000000	0,692069
3983,000000	0,692673
3982,000000	0,693726
3981,000000	0,694847
3980,000000	0,695367
3979,000000	0,694828
3978,000000	0,693387
3977,000000	0,691702
3976,000000	0,690412
3975,000000	0,689792
3974,000000	0,689812
3973,000000	0,690350
3972,000000	0,691286
3971,000000	0,692485
3970,000000	0,693838
3969,000000	0,695306
3968,000000	0,696809
3967,000000	0,698018
3966,000000	0,698404
3965,000000	0,697650
3964,000000	0,696062
3963,000000	0,694456
3962,000000	0,693559
3961,000000	0,693539
3960,000000	0,694131
3959,000000	0,695107
3958,000000	0,696481
3957,000000	0,698210
3956,000000	0,699815
3955,000000	0,700377
3954,000000	0,698935
3953,000000	0,694975
3952,000000	0,688869
3951,000000	0,682098
3950,000000	0,676841
3949,000000	0,674751
3948,000000	0,675570
3947,000000	0,677008
3946,000000	0,676620
3945,000000	0,674129
3944,000000	0,671919
3943,000000	0,672966
3942,000000	0,678160
3941,000000	0,685798
3940,000000	0,693315
3939,000000	0,698956
3938,000000	0,701771
3937,000000	0,700811
3936,000000	0,695315
3935,000000	0,685962
3934,000000	0,675434
3933,000000	0,667396
3932,000000	0,664497
3931,000000	0,666953
3930,000000	0,672371
3929,000000	0,676957
3928,000000	0,677881
3927,000000	0,675257
3926,000000	0,671901
3925,000000	0,670794
3924,000000	0,672357
3923,000000	0,674184
3922,000000	0,673218
3921,000000	0,668171
3920,000000	0,660529
3919,000000	0,653897
3918,000000	0,652378
3917,000000	0,658339
3916,000000	0,670878
3915,000000	0,686338
3914,000000	0,700641
3913,000000	0,711619
3912,000000	0,719028
3911,000000	0,722682
3910,000000	0,720868
3909,000000	0,710756
3908,000000	0,690553
3907,000000	0,661652
3906,000000	0,629016
3905,000000	0,599044
3904,000000	0,576368
3903,000000	0,562405
3902,000000	0,556825
3901,000000	0,559961
3900,000000	0,573133
3899,000000	0,595994
3898,000000	0,624151
3897,000000	0,649736
3896,000000	0,664951
3895,000000	0,666244
3894,000000	0,656629
3893,000000	0,644615
3892,000000	0,638984
3891,000000	0,642042
3890,000000	0,647236
3889,000000	0,645338
3888,000000	0,633703
3887,000000	0,619286
3886,000000	0,611289
3885,000000	0,611632
3884,000000	0,614026
3883,000000	0,612393
3882,000000	0,608663
3881,000000	0,610893
3880,000000	0,623852
3879,000000	0,642755
3878,000000	0,656918
3877,000000	0,659221
3876,000000	0,651163
3875,000000	0,638481
3874,000000	0,623912
3873,000000	0,606339
3872,000000	0,586820
3871,000000	0,572006
3870,000000	0,568656
3869,000000	0,575740
3868,000000	0,584755
3867,000000	0,588390
3866,000000	0,587326
3865,000000	0,588013
3864,000000	0,595601
3863,000000	0,610371
3862,000000	0,628996
3861,000000	0,646634
3860,000000	0,657256
3859,000000	0,654021
3858,000000	0,631619
3857,000000	0,589932
3856,000000	0,537089
3855,000000	0,488761
3854,000000	0,461925
3853,000000	0,465958
3852,000000	0,497890
3851,000000	0,545505
3850,000000	0,595204
3849,000000	0,637234
3848,000000	0,666118
3847,000000	0,679679
3846,000000	0,679171
3845,000000	0,668695
3844,000000	0,652488
3843,000000	0,632376
3842,000000	0,608340
3841,000000	0,581624
3840,000000	0,556743
3839,000000	0,539973
3838,000000	0,535824
3837,000000	0,544164
3836,000000	0,560422
3835,000000	0,578807
3834,000000	0,596179
3833,000000	0,613078
3832,000000	0,631019
3831,000000	0,649084
3830,000000	0,663798
3829,000000	0,672740
3828,000000	0,677002
3827,000000	0,678594
3826,000000	0,675445
3825,000000	0,661383
3824,000000	0,633568
3823,000000	0,599557
3822,000000	0,573755
3821,000000	0,565096
3820,000000	0,569006
3819,000000	0,573924
3818,000000	0,574835
3817,000000	0,578535
3816,000000	0,595148
3815,000000	0,626686
3814,000000	0,665131
3813,000000	0,698996
3812,000000	0,719615
3811,000000	0,722632
3810,000000	0,708702
3809,000000	0,685005
3808,000000	0,663125
3807,000000	0,650730
3806,000000	0,644318
3805,000000	0,633132
3804,000000	0,611958
3803,000000	0,588769
3802,000000	0,577580
3801,000000	0,584488
3800,000000	0,602909
3799,000000	0,622283
3798,000000	0,639074
3797,000000	0,657401
3796,000000	0,681386
3795,000000	0,709322
3794,000000	0,735521
3793,000000	0,755583
3792,000000	0,768852
3791,000000	0,776883
3790,000000	0,780799
3789,000000	0,780451
3788,000000	0,775692
3787,000000	0,768287
3786,000000	0,761602
3785,000000	0,757745
3784,000000	0,754844
3783,000000	0,748571
3782,000000	0,737313
3781,000000	0,725402
3780,000000	0,720296
3779,000000	0,726158
3778,000000	0,740597
3777,000000	0,757188
3776,000000	0,769930
3775,000000	0,774916
3774,000000	0,769647
3773,000000	0,753781
3772,000000	0,731560
3771,000000	0,711201
3770,000000	0,699271
3769,000000	0,695841
3768,000000	0,696595
3767,000000	0,699341
3766,000000	0,705800
3765,000000	0,716379
3764,000000	0,725661
3763,000000	0,726021
3762,000000	0,715169
3761,000000	0,698738
3760,000000	0,685349
3759,000000	0,679900
3758,000000	0,680506
3757,000000	0,679647
3756,000000	0,668158
3755,000000	0,640731
3754,000000	0,599917
3753,000000	0,555549
3752,000000	0,519973
3751,000000	0,501844
3750,000000	0,501264
3749,000000	0,508701
3748,000000	0,510676
3747,000000	0,500888
3746,000000	0,487319
3745,000000	0,486340
3744,000000	0,507586
3743,000000	0,545213
3742,000000	0,583201
3741,000000	0,607028
3740,000000	0,610266
3739,000000	0,594228
3738,000000	0,565997
3737,000000	0,536269
3736,000000	0,515207
3735,000000	0,508310
3734,000000	0,516334
3733,000000	0,537958
3732,000000	0,569897
3731,000000	0,604857
3730,000000	0,632853
3729,000000	0,647502
3728,000000	0,650393
3727,000000	0,648152
3726,000000	0,646164
3725,000000	0,646079
3724,000000	0,648238
3723,000000	0,653881
3722,000000	0,664220
3721,000000	0,678887
3720,000000	0,696173
3719,000000	0,713797
3718,000000	0,728132
3717,000000	0,733184
3716,000000	0,722608
3715,000000	0,694748
3714,000000	0,656022
3713,000000	0,618758
3712,000000	0,595025
3711,000000	0,591057
3710,000000	0,606085
3709,000000	0,634164
3708,000000	0,666642
3707,000000	0,694503
3706,000000	0,710623
3705,000000	0,712656
3704,000000	0,704608
3703,000000	0,695241
3702,000000	0,693118
3701,000000	0,701062
3700,000000	0,715128
3699,000000	0,728913
3698,000000	0,738563
3697,000000	0,743141
3696,000000	0,741200
3695,000000	0,729148
3694,000000	0,704065
3693,000000	0,667317
3692,000000	0,625293
3691,000000	0,587938
3690,000000	0,566085
3689,000000	0,567560
3688,000000	0,592465
3687,000000	0,631922
3686,000000	0,673012
3685,000000	0,705593
3684,000000	0,725173
3683,000000	0,731275
3682,000000	0,725028
3681,000000	0,707269
3680,000000	0,677324
3679,000000	0,634397
3678,000000	0,583259
3677,000000	0,537728
3676,000000	0,513940
3675,000000	0,516179
3674,000000	0,531442
3673,000000	0,541536
3672,000000	0,540561
3671,000000	0,539407
3670,000000	0,553193
3669,000000	0,586649
3668,000000	0,631737
3667,000000	0,676022
3666,000000	0,710989
3665,000000	0,734298
3664,000000	0,747531
3663,000000	0,753449
3662,000000	0,753526
3661,000000	0,746456
3660,000000	0,729673
3659,000000	0,703912
3658,000000	0,676590
3657,000000	0,658072
3656,000000	0,652034
3655,000000	0,649647
3654,000000	0,635245
3653,000000	0,599990
3652,000000	0,549850
3651,000000	0,501391
3650,000000	0,471102
3649,000000	0,467952
3648,000000	0,492342
3647,000000	0,537297
3646,000000	0,590396
3645,000000	0,638417
3644,000000	0,673540
3643,000000	0,695410
3642,000000	0,707832
3641,000000	0,714365
3640,000000	0,716984
3639,000000	0,716660
3638,000000	0,713227
3637,000000	0,705809
3636,000000	0,694560
3635,000000	0,680743
3634,000000	0,663145
3633,000000	0,636291
3632,000000	0,596210
3631,000000	0,549642
3630,000000	0,514342
3629,000000	0,507257
3628,000000	0,531424
3627,000000	0,574615
3626,000000	0,618850
3625,000000	0,650290
3624,000000	0,662118
3623,000000	0,653712
3622,000000	0,630369
3621,000000	0,602872
3620,000000	0,583479
3619,000000	0,579324
3618,000000	0,588061
3617,000000	0,600384
3616,000000	0,607776
3615,000000	0,608541
3614,000000	0,606626
3613,000000	0,605487
3612,000000	0,604406
3611,000000	0,601331
3610,000000	0,598057
3609,000000	0,600601
3608,000000	0,613793
3607,000000	0,636301
3606,000000	0,660981
3605,000000	0,679710
3604,000000	0,688091
3603,000000	0,687106
3602,000000	0,681467
3601,000000	0,676028
3600,000000	0,672534
3599,000000	0,669375
3598,000000	0,664436
3597,000000	0,658194
3596,000000	0,654066
3595,000000	0,655639
3594,000000	0,662994
3593,000000	0,670933
3592,000000	0,671176
3591,000000	0,658033
3590,000000	0,634102
3589,000000	0,610476
3588,000000	0,600124
3587,000000	0,609354
3586,000000	0,634442
3585,000000	0,665340
3584,000000	0,692409
3583,000000	0,710915
3582,000000	0,721287
3581,000000	0,726527
3580,000000	0,729485
3579,000000	0,731662
3578,000000	0,733498
3577,000000	0,735156
3576,000000	0,736974
3575,000000	0,739122
3574,000000	0,740629
3573,000000	0,738393
3572,000000	0,727521
3571,000000	0,704273
3570,000000	0,670439
3569,000000	0,635198
3568,000000	0,611201
3567,000000	0,607211
3566,000000	0,622859
3565,000000	0,649848
3564,000000	0,677811
3563,000000	0,700086
3562,000000	0,715450
3561,000000	0,726165
3560,000000	0,734900
3559,000000	0,742787
3558,000000	0,749075
3557,000000	0,751797
3556,000000	0,749378
3555,000000	0,742481
3554,000000	0,734557
3553,000000	0,729773
3552,000000	0,729523
3551,000000	0,730915
3550,000000	0,729202
3549,000000	0,722121
3548,000000	0,712005
3547,000000	0,704076
3546,000000	0,702829
3545,000000	0,709552
3544,000000	0,722219
3543,000000	0,737002
3542,000000	0,750093
3541,000000	0,758946
3540,000000	0,762784
3539,000000	0,762592
3538,000000	0,760730
3537,000000	0,759817
3536,000000	0,761110
3535,000000	0,763630
3534,000000	0,764992
3533,000000	0,763276
3532,000000	0,758161
3531,000000	0,750706
3530,000000	0,742585
3529,000000	0,735531
3528,000000	0,730740
3527,000000	0,728345
3526,000000	0,727791
3525,000000	0,729000
3524,000000	0,732839
3523,000000	0,739893
3522,000000	0,749007
3521,000000	0,757686
3520,000000	0,764131
3519,000000	0,768430
3518,000000	0,771713
3517,000000	0,774537
3516,000000	0,776409
3515,000000	0,776444
3514,000000	0,774055
3513,000000	0,769287
3512,000000	0,763206
3511,000000	0,758017
3510,000000	0,756000
3509,000000	0,757540
3508,000000	0,760172
3507,000000	0,760261
3506,000000	0,756117
3505,000000	0,749626
3504,000000	0,744847
3503,000000	0,744948
3502,000000	0,750156
3501,000000	0,757952
3500,000000	0,764954
3499,000000	0,768945
3498,000000	0,769980
3497,000000	0,769949
3496,000000	0,770936
3495,000000	0,773627
3494,000000	0,777031
3493,000000	0,779573
3492,000000	0,780292
3491,000000	0,779234
3490,000000	0,777173
3489,000000	0,775208
3488,000000	0,774215
3487,000000	0,774162
3486,000000	0,773945
3485,000000	0,772344
3484,000000	0,769399
3483,000000	0,766759
3482,000000	0,766398
3481,000000	0,768991
3480,000000	0,773445
3479,000000	0,777849
3478,000000	0,780858
3477,000000	0,782351
3476,000000	0,783094
3475,000000	0,783894
3474,000000	0,785008
3473,000000	0,786200
3472,000000	0,787142
3471,000000	0,787655
3470,000000	0,787681
3469,000000	0,787287
3468,000000	0,786731
3467,000000	0,786296
3466,000000	0,785962
3465,000000	0,785424
3464,000000	0,784628
3463,000000	0,784137
3462,000000	0,784681
3461,000000	0,786383
3460,000000	0,788619
3459,000000	0,790667
3458,000000	0,792258
3457,000000	0,793471
3456,000000	0,794389
3455,000000	0,795075
3454,000000	0,795685
3453,000000	0,796154
3452,000000	0,795688
3451,000000	0,792995
3450,000000	0,787580
3449,000000	0,780895
3448,000000	0,775835
3447,000000	0,774622
3446,000000	0,777088
3445,000000	0,781211
3444,000000	0,785150
3443,000000	0,788504
3442,000000	0,791726
3441,000000	0,794930
3440,000000	0,797713
3439,000000	0,799793
3438,000000	0,801308
3437,000000	0,802493
3436,000000	0,803417
3435,000000	0,804108
3434,000000	0,804665
3433,000000	0,805198
3432,000000	0,805800
3431,000000	0,806599
3430,000000	0,807652
3429,000000	0,808786
3428,000000	0,809707
3427,000000	0,810189
3426,000000	0,809950
3425,000000	0,808512
3424,000000	0,805663
3423,000000	0,802227
3422,000000	0,799953
3421,000000	0,800275
3420,000000	0,803197
3419,000000	0,807431
3418,000000	0,811460
3417,000000	0,814435
3416,000000	0,816376
3415,000000	0,817830
3414,000000	0,819294
3413,000000	0,820769
3412,000000	0,821893
3411,000000	0,822496
3410,000000	0,822819
3409,000000	0,823130
3408,000000	0,823361
3407,000000	0,823287
3406,000000	0,822899
3405,000000	0,822421
3404,000000	0,822101
3403,000000	0,822117
3402,000000	0,822495
3401,000000	0,822961
3400,000000	0,823073
3399,000000	0,822729
3398,000000	0,822392
3397,000000	0,822533
3396,000000	0,823027
3395,000000	0,823408
3394,000000	0,823667
3393,000000	0,824403
3392,000000	0,826116
3391,000000	0,828586
3390,000000	0,831052
3389,000000	0,832816
3388,000000	0,833616
3387,000000	0,833680
3386,000000	0,833581
3385,000000	0,833917
3384,000000	0,834913
3383,000000	0,836282
3382,000000	0,837541
3381,000000	0,838446
3380,000000	0,839130
3379,000000	0,839867
3378,000000	0,840744
3377,000000	0,841579
3376,000000	0,842129
3375,000000	0,842367
3374,000000	0,842507
3373,000000	0,842741
3372,000000	0,842987
3371,000000	0,842915
3370,000000	0,842224
3369,000000	0,840915
3368,000000	0,839423
3367,000000	0,838473
3366,000000	0,838624
3365,000000	0,839795
3364,000000	0,841296
3363,000000	0,842437
3362,000000	0,843088
3361,000000	0,843593
3360,000000	0,844253
3359,000000	0,845073
3358,000000	0,845968
3357,000000	0,847009
3356,000000	0,848331
3355,000000	0,849859
3354,000000	0,851237
3353,000000	0,852081
3352,000000	0,852321
3351,000000	0,852288
3350,000000	0,852469
3349,000000	0,853124
3348,000000	0,854138
3347,000000	0,855160
3346,000000	0,855886
3345,000000	0,856272
3344,000000	0,856536
3343,000000	0,856929
3342,000000	0,857425
3341,000000	0,857687
3340,000000	0,857424
3339,000000	0,856744
3338,000000	0,856075
3337,000000	0,855789
3336,000000	0,856028
3335,000000	0,856803
3334,000000	0,858025
3333,000000	0,859394
3332,000000	0,860490
3331,000000	0,861078
3330,000000	0,861229
3329,000000	0,861125
3328,000000	0,860899
3327,000000	0,860718
3326,000000	0,860835
3325,000000	0,861432
3324,000000	0,862476
3323,000000	0,863761
3322,000000	0,864988
3321,000000	0,865845
3320,000000	0,866190
3319,000000	0,866223
3318,000000	0,866278
3317,000000	0,866415
3316,000000	0,866405
3315,000000	0,866151
3314,000000	0,865858
3313,000000	0,865663
3312,000000	0,865405
3311,000000	0,865032
3310,000000	0,865017
3309,000000	0,865985
3308,000000	0,867959
3307,000000	0,870232
3306,000000	0,872039
3305,000000	0,873201
3304,000000	0,874064
3303,000000	0,874952
3302,000000	0,875799
3301,000000	0,876263
3300,000000	0,876151
3299,000000	0,875683
3298,000000	0,875286
3297,000000	0,875171
3296,000000	0,875221
3295,000000	0,875303
3294,000000	0,875483
3293,000000	0,875873
3292,000000	0,876415
3291,000000	0,876982
3290,000000	0,877608
3289,000000	0,878432
3288,000000	0,879453
3287,000000	0,880440
3286,000000	0,881139
3285,000000	0,881527
3284,000000	0,881866
3283,000000	0,882457
3282,000000	0,883277
3281,000000	0,883874
3280,000000	0,883722
3279,000000	0,882699
3278,000000	0,881140
3277,000000	0,879509
3276,000000	0,878228
3275,000000	0,877761
3274,000000	0,878530
3273,000000	0,880564
3272,000000	0,883349
3271,000000	0,886167
3270,000000	0,888492
3269,000000	0,890077
3268,000000	0,890910
3267,000000	0,891234
3266,000000	0,891444
3265,000000	0,891773
3264,000000	0,892139
3263,000000	0,892380
3262,000000	0,892506
3261,000000	0,892626
3260,000000	0,892749
3259,000000	0,892803
3258,000000	0,892766
3257,000000	0,892698
3256,000000	0,892721
3255,000000	0,893053
3254,000000	0,893909
3253,000000	0,895267
3252,000000	0,896811
3251,000000	0,898149
3250,000000	0,898985
3249,000000	0,899093
3248,000000	0,898406
3247,000000	0,897313
3246,000000	0,896631
3245,000000	0,897013
3244,000000	0,898364
3243,000000	0,899983
3242,000000	0,901238
3241,000000	0,902003
3240,000000	0,902532
3239,000000	0,903070
3238,000000	0,903597
3237,000000	0,903921
3236,000000	0,903971
3235,000000	0,903973
3234,000000	0,904233
3233,000000	0,904793
3232,000000	0,905478
3231,000000	0,906222
3230,000000	0,907156
3229,000000	0,908311
3228,000000	0,909464
3227,000000	0,910394
3226,000000	0,911085
3225,000000	0,911537
3224,000000	0,911560
3223,000000	0,910994
3222,000000	0,910083
3221,000000	0,909475
3220,000000	0,909772
3219,000000	0,911016
3218,000000	0,912561
3217,000000	0,913544
3216,000000	0,913665
3215,000000	0,913496
3214,000000	0,913860
3213,000000	0,914916
3212,000000	0,916153
3211,000000	0,917166
3210,000000	0,918101
3209,000000	0,919226
3208,000000	0,920496
3207,000000	0,921734
3206,000000	0,922945
3205,000000	0,924124
3204,000000	0,924973
3203,000000	0,925119
3202,000000	0,924543
3201,000000	0,923592
3200,000000	0,922689
3199,000000	0,922183
3198,000000	0,922344
3197,000000	0,923248
3196,000000	0,924661
3195,000000	0,926210
3194,000000	0,927639
3193,000000	0,928867
3192,000000	0,929903
3191,000000	0,930797
3190,000000	0,931577
3189,000000	0,932142
3188,000000	0,932357
3187,000000	0,932330
3186,000000	0,932445
3185,000000	0,933020
3184,000000	0,933985
3183,000000	0,934966
3182,000000	0,935557
3181,000000	0,935560
3180,000000	0,935188
3179,000000	0,935083
3178,000000	0,935837
3177,000000	0,937339
3176,000000	0,938824
3175,000000	0,939707
3174,000000	0,940152
3173,000000	0,940686
3172,000000	0,941544
3171,000000	0,942581
3170,000000	0,943609
3169,000000	0,944491
3168,000000	0,945085
3167,000000	0,945384
3166,000000	0,945669
3165,000000	0,946283
3164,000000	0,947257
3163,000000	0,948287
3162,000000	0,949039
3161,000000	0,949412
3160,000000	0,949583
3159,000000	0,949908
3158,000000	0,950646
3157,000000	0,951683
3156,000000	0,952635
3155,000000	0,953293
3154,000000	0,953804
3153,000000	0,954389
3152,000000	0,955081
3151,000000	0,955859
3150,000000	0,956772
3149,000000	0,957759
3148,000000	0,958529
3147,000000	0,958871
3146,000000	0,958945
3145,000000	0,959100
3144,000000	0,959510
3143,000000	0,960121
3142,000000	0,960803
3141,000000	0,961404
3140,000000	0,961801
3139,000000	0,962048
3138,000000	0,962320
3137,000000	0,962599
3136,000000	0,962624
3135,000000	0,962358
3134,000000	0,962303
3133,000000	0,963053
3132,000000	0,964585
3131,000000	0,966228
3130,000000	0,967300
3129,000000	0,967634
3128,000000	0,967529
3127,000000	0,967357
3126,000000	0,967248
3125,000000	0,967114
3124,000000	0,966962
3123,000000	0,967106
3122,000000	0,967856
3121,000000	0,969008
3120,000000	0,969913
3119,000000	0,970160
3118,000000	0,969993
3117,000000	0,969972
3116,000000	0,970460
3115,000000	0,971560
3114,000000	0,973224
3113,000000	0,975172
3112,000000	0,976900
3111,000000	0,978077
3110,000000	0,978873
3109,000000	0,979720
3108,000000	0,980835
3107,000000	0,982041
3106,000000	0,982902
3105,000000	0,982954
3104,000000	0,982100
3103,000000	0,980961
3102,000000	0,980564
3101,000000	0,981384
3100,000000	0,982826
3099,000000	0,983906
3098,000000	0,984309
3097,000000	0,984550
3096,000000	0,985246
3095,000000	0,986563
3094,000000	0,988284
3093,000000	0,990112
3092,000000	0,991798
3091,000000	0,993189
3090,000000	0,994247
3089,000000	0,995001
3088,000000	0,995509
3087,000000	0,995861
3086,000000	0,996116
3085,000000	0,996187
3084,000000	0,995927
3083,000000	0,995377
3082,000000	0,994817
3081,000000	0,994552
3080,000000	0,994829
3079,000000	0,995931
3078,000000	0,998011
3077,000000	1,000683
3076,000000	1,003072
3075,000000	1,004547
3074,000000	1,005218
3073,000000	1,005558
3072,000000	1,005755
3071,000000	1,005666
3070,000000	1,005170
3069,000000	1,004287
3068,000000	1,003098
3067,000000	1,001864
3066,000000	1,001131
3065,000000	1,001441
3064,000000	1,002897
3063,000000	1,005095
3062,000000	1,007387
3061,000000	1,009105
3060,000000	1,009765
3059,000000	1,009412
3058,000000	1,008740
3057,000000	1,008650
3056,000000	1,009608
3055,000000	1,011416
3054,000000	1,013480
3053,000000	1,015201
3052,000000	1,016293
3051,000000	1,016944
3050,000000	1,017621
3049,000000	1,018618
3048,000000	1,019862
3047,000000	1,021193
3046,000000	1,022615
3045,000000	1,024107
3044,000000	1,025391
3043,000000	1,026138
3042,000000	1,026338
3041,000000	1,026313
3040,000000	1,026390
3039,000000	1,026652
3038,000000	1,026910
3037,000000	1,026782
3036,000000	1,025940
3035,000000	1,024446
3034,000000	1,022853
3033,000000	1,021921
3032,000000	1,022224
3031,000000	1,023917
3030,000000	1,026569
3029,000000	1,029187
3028,000000	1,030754
3027,000000	1,031022
3026,000000	1,030668
3025,000000	1,030517
3024,000000	1,030771
3023,000000	1,031092
3022,000000	1,031203
3021,000000	1,031137
3020,000000	1,031054
3019,000000	1,031046
3018,000000	1,031108
3017,000000	1,031152
3016,000000	1,031133
3015,000000	1,031250
3014,000000	1,031928
3013,000000	1,033499
3012,000000	1,035953
3011,000000	1,039053
3010,000000	1,042460
3009,000000	1,045686
3008,000000	1,048147
3007,000000	1,049541
3006,000000	1,050119
3005,000000	1,050475
3004,000000	1,051136
3003,000000	1,052331
3002,000000	1,053942
3001,000000	1,055530
3000,000000	1,056624
2999,000000	1,057113
2998,000000	1,057304
2997,000000	1,057531
2996,000000	1,057912
2995,000000	1,058497
2994,000000	1,059379
2993,000000	1,060462
2992,000000	1,061375
2991,000000	1,061832
2990,000000	1,061973
2989,000000	1,062170
2988,000000	1,062632
2987,000000	1,063322
2986,000000	1,064088
2985,000000	1,064727
2984,000000	1,065025
2983,000000	1,064938
2982,000000	1,064659
2981,000000	1,064433
2980,000000	1,064342
2979,000000	1,064309
2978,000000	1,064175
2977,000000	1,063776
2976,000000	1,063135
2975,000000	1,062583
2974,000000	1,062438
2973,000000	1,062493
2972,000000	1,062072
2971,000000	1,060702
2970,000000	1,058543
2969,000000	1,056095
2968,000000	1,053764
2967,000000	1,051806
2966,000000	1,050373
2965,000000	1,049408
2964,000000	1,048669
2963,000000	1,048051
2962,000000	1,047698
2961,000000	1,047721
2960,000000	1,047982
2959,000000	1,048264
2958,000000	1,048437
2957,000000	1,048416
2956,000000	1,048234
2955,000000	1,048216
2954,000000	1,048747
2953,000000	1,049703
2952,000000	1,050450
2951,000000	1,050611
2950,000000	1,050524
2949,000000	1,050726
2948,000000	1,051264
2947,000000	1,051758
2946,000000	1,051893
2945,000000	1,051553
2944,000000	1,050686
2943,000000	1,049342
2942,000000	1,047751
2941,000000	1,046121
2940,000000	1,044454
2939,000000	1,042686
2938,000000	1,040872
2937,000000	1,039107
2936,000000	1,037443
2935,000000	1,036015
2934,000000	1,035009
2933,000000	1,034334
2932,000000	1,033553
2931,000000	1,032349
2930,000000	1,030910
2929,000000	1,029704
2928,000000	1,029039
2927,000000	1,028981
2926,000000	1,029486
2925,000000	1,030427
2924,000000	1,031650
2923,000000	1,033194
2922,000000	1,035277
2921,000000	1,037960
2920,000000	1,041003
2919,000000	1,044175
2918,000000	1,047500
2917,000000	1,051046
2916,000000	1,054699
2915,000000	1,058311
2914,000000	1,061851
2913,000000	1,065259
2912,000000	1,068361
2911,000000	1,071131
2910,000000	1,073847
2909,000000	1,076776
2908,000000	1,079846
2907,000000	1,082767
2906,000000	1,085356
2905,000000	1,087635
2904,000000	1,089744
2903,000000	1,091853
2902,000000	1,093983
2901,000000	1,095907
2900,000000	1,097435
2899,000000	1,098817
2898,000000	1,100559
2897,000000	1,102806
2896,000000	1,105191
2895,000000	1,107378
2894,000000	1,109362
2893,000000	1,111122
2892,000000	1,112425
2891,000000	1,113216
2890,000000	1,113884
2889,000000	1,114859
2888,000000	1,116191
2887,000000	1,117710
2886,000000	1,119318
2885,000000	1,120894
2884,000000	1,122203
2883,000000	1,123123
2882,000000	1,123775
2881,000000	1,124245
2880,000000	1,124448
2879,000000	1,124409
2878,000000	1,124391
2877,000000	1,124521
2876,000000	1,124567
2875,000000	1,124273
2874,000000	1,123648
2873,000000	1,122765
2872,000000	1,121613
2871,000000	1,120357
2870,000000	1,119368
2869,000000	1,118682
2868,000000	1,117734
2867,000000	1,115962
2866,000000	1,113481
2865,000000	1,110880
2864,000000	1,108640
2863,000000	1,106980
2862,000000	1,105998
2861,000000	1,105630
2860,000000	1,105660
2859,000000	1,106058
2858,000000	1,107100
2857,000000	1,108908
2856,000000	1,111133
2855,000000	1,113350
2854,000000	1,115543
2853,000000	1,117906
2852,000000	1,120429
2851,000000	1,122997
2850,000000	1,125703
2849,000000	1,128692
2848,000000	1,131865
2847,000000	1,135024
2846,000000	1,138201
2845,000000	1,141560
2844,000000	1,145080
2843,000000	1,148604
2842,000000	1,152066
2841,000000	1,155441
2840,000000	1,158592
2839,000000	1,161418
2838,000000	1,164026
2837,000000	1,166558
2836,000000	1,168953
2835,000000	1,171079
2834,000000	1,172967
2833,000000	1,174746
2832,000000	1,176453
2831,000000	1,178087
2830,000000	1,179713
2829,000000	1,181343
2828,000000	1,182864
2827,000000	1,184212
2826,000000	1,185491
2825,000000	1,186795
2824,000000	1,188099
2823,000000	1,189417
2822,000000	1,190877
2821,000000	1,192506
2820,000000	1,194137
2819,000000	1,195632
2818,000000	1,196998
2817,000000	1,198206
2816,000000	1,199174
2815,000000	1,200016
2814,000000	1,201011
2813,000000	1,202213
2812,000000	1,203376
2811,000000	1,204396
2810,000000	1,205506
2809,000000	1,206861
2808,000000	1,208261
2807,000000	1,209447
2806,000000	1,210378
2805,000000	1,211068
2804,000000	1,211479
2803,000000	1,211784
2802,000000	1,212371
2801,000000	1,213352
2800,000000	1,214368
2799,000000	1,215132
2798,000000	1,215813
2797,000000	1,216662
2796,000000	1,217577
2795,000000	1,218365
2794,000000	1,219134
2793,000000	1,220092
2792,000000	1,221208
2791,000000	1,222363
2790,000000	1,223618
2789,000000	1,225048
2788,000000	1,226514
2787,000000	1,227851
2786,000000	1,229094
2785,000000	1,230311
2784,000000	1,231422
2783,000000	1,232395
2782,000000	1,233422
2781,000000	1,234682
2780,000000	1,236136
2779,000000	1,237664
2778,000000	1,239155
2777,000000	1,240344
2776,000000	1,240951
2775,000000	1,241196
2774,000000	1,241805
2773,000000	1,243232
2772,000000	1,245153
2771,000000	1,246949
2770,000000	1,248367
2769,000000	1,249452
2768,000000	1,250240
2767,000000	1,250843
2766,000000	1,251554
2765,000000	1,252503
2764,000000	1,253437
2763,000000	1,254125
2762,000000	1,254710
2761,000000	1,255400
2760,000000	1,256093
2759,000000	1,256634
2758,000000	1,257171
2757,000000	1,257950
2756,000000	1,258993
2755,000000	1,260238
2754,000000	1,261704
2753,000000	1,263238
2752,000000	1,264391
2751,000000	1,264902
2750,000000	1,265084
2749,000000	1,265460
2748,000000	1,266224
2747,000000	1,267307
2746,000000	1,268655
2745,000000	1,270097
2744,000000	1,271264
2743,000000	1,272000
2742,000000	1,272640
2741,000000	1,273552
2740,000000	1,274642
2739,000000	1,275623
2738,000000	1,276506
2737,000000	1,277450
2736,000000	1,278372
2735,000000	1,279087
2734,000000	1,279676
2733,000000	1,280357
2732,000000	1,281145
2731,000000	1,281961
2730,000000	1,282890
2729,000000	1,284022
2728,000000	1,285203
2727,000000	1,286227
2726,000000	1,287112
2725,000000	1,287923
2724,000000	1,288552
2723,000000	1,288964
2722,000000	1,289470
2721,000000	1,290380
2720,000000	1,291572
2719,000000	1,292707
2718,000000	1,293715
2717,000000	1,294751
2716,000000	1,295790
2715,000000	1,296635
2714,000000	1,297235
2713,000000	1,297740
2712,000000	1,298307
2711,000000	1,299025
2710,000000	1,299943
2709,000000	1,300988
2708,000000	1,301993
2707,000000	1,302926
2706,000000	1,303925
2705,000000	1,304999
2704,000000	1,305979
2703,000000	1,306866
2702,000000	1,307916
2701,000000	1,309174
2700,000000	1,310295
2699,000000	1,311108
2698,000000	1,311993
2697,000000	1,313375
2696,000000	1,315107
2695,000000	1,316719
2694,000000	1,318022
2693,000000	1,319109
2692,000000	1,319999
2691,000000	1,320667
2690,000000	1,321270
2689,000000	1,322001
2688,000000	1,322807
2687,000000	1,323532
2686,000000	1,324223
2685,000000	1,325040
2684,000000	1,325998
2683,000000	1,326993
2682,000000	1,327939
2681,000000	1,328712
2680,000000	1,329174
2679,000000	1,329458
2678,000000	1,329995
2677,000000	1,331018
2676,000000	1,332221
2675,000000	1,333124
2674,000000	1,333592
2673,000000	1,333818
2672,000000	1,334045
2671,000000	1,334500
2670,000000	1,335355
2669,000000	1,336494
2668,000000	1,337530
2667,000000	1,338260
2666,000000	1,338907
2665,000000	1,339742
2664,000000	1,340742
2663,000000	1,341811
2662,000000	1,343009
2661,000000	1,344318
2660,000000	1,345464
2659,000000	1,346259
2658,000000	1,346855
2657,000000	1,347453
2656,000000	1,348003
2655,000000	1,348438
2654,000000	1,348909
2653,000000	1,349550
2652,000000	1,350285
2651,000000	1,351097
2650,000000	1,352169
2649,000000	1,353504
2648,000000	1,354708
2647,000000	1,355459
2646,000000	1,355913
2645,000000	1,356374
2644,000000	1,356860
2643,000000	1,357303
2642,000000	1,357883
2641,000000	1,358827
2640,000000	1,360063
2639,000000	1,361342
2638,000000	1,362494
2637,000000	1,363367
2636,000000	1,363830
2635,000000	1,364082
2634,000000	1,364655
2633,000000	1,365810
2632,000000	1,367177
2631,000000	1,368263
2630,000000	1,369012
2629,000000	1,369624
2628,000000	1,370156
2627,000000	1,370592
2626,000000	1,371042
2625,000000	1,371550
2624,000000	1,372008
2623,000000	1,372481
2622,000000	1,373306
2621,000000	1,374537
2620,000000	1,375694
2619,000000	1,376393
2618,000000	1,376912
2617,000000	1,377723
2616,000000	1,378777
2615,000000	1,379661
2614,000000	1,380236
2613,000000	1,380702
2612,000000	1,381234
2611,000000	1,381916
2610,000000	1,382861
2609,000000	1,384040
2608,000000	1,385147
2607,000000	1,385933
2606,000000	1,386519
2605,000000	1,387139
2604,000000	1,387807
2603,000000	1,388496
2602,000000	1,389359
2601,000000	1,390462
2600,000000	1,391534
2599,000000	1,392291
2598,000000	1,392820
2597,000000	1,393340
2596,000000	1,393820
2595,000000	1,394114
2594,000000	1,394262
2593,000000	1,394389
2592,000000	1,394543
2591,000000	1,394872
2590,000000	1,395654
2589,000000	1,396856
2588,000000	1,397932
2587,000000	1,398424
2586,000000	1,398572
2585,000000	1,399010
2584,000000	1,400051
2583,000000	1,401516
2582,000000	1,403021
2581,000000	1,404188
2580,000000	1,404809
2579,000000	1,405105
2578,000000	1,405623
2577,000000	1,406625
2576,000000	1,407799
2575,000000	1,408759
2574,000000	1,409537
2573,000000	1,410331
2572,000000	1,411093
2571,000000	1,411671
2570,000000	1,412139
2569,000000	1,412676
2568,000000	1,413351
2567,000000	1,414215
2566,000000	1,415336
2565,000000	1,416533
2564,000000	1,417378
2563,000000	1,417722
2562,000000	1,417922
2561,000000	1,418337
2560,000000	1,418914
2559,000000	1,419496
2558,000000	1,420140
2557,000000	1,420861
2556,000000	1,421434
2555,000000	1,421797
2554,000000	1,422319
2553,000000	1,423300
2552,000000	1,424489
2551,000000	1,425410
2550,000000	1,425914
2549,000000	1,426144
2548,000000	1,426278
2547,000000	1,426561
2546,000000	1,427241
2545,000000	1,428203
2544,000000	1,428973
2543,000000	1,429354
2542,000000	1,429703
2541,000000	1,430330
2540,000000	1,431026
2539,000000	1,431490
2538,000000	1,431804
2537,000000	1,432156
2536,000000	1,432510
2535,000000	1,432892
2534,000000	1,433566
2533,000000	1,434560
2532,000000	1,435443
2531,000000	1,435970
2530,000000	1,436524
2529,000000	1,437472
2528,000000	1,438505
2527,000000	1,439124
2526,000000	1,439414
2525,000000	1,439782
2524,000000	1,440276
2523,000000	1,440708
2522,000000	1,441203
2521,000000	1,442041
2520,000000	1,443096
2519,000000	1,443954
2518,000000	1,444503
2517,000000	1,444991
2516,000000	1,445608
2515,000000	1,446293
2514,000000	1,446883
2513,000000	1,447176
2512,000000	1,447049
2511,000000	1,446719
2510,000000	1,446643
2509,000000	1,446949
2508,000000	1,447281
2507,000000	1,447432
2506,000000	1,447710
2505,000000	1,448371
2504,000000	1,449135
2503,000000	1,449668
2502,000000	1,450141
2501,000000	1,450862
2500,000000	1,451684
2499,000000	1,452286
2498,000000	1,452714
2497,000000	1,453206
2496,000000	1,453703
2495,000000	1,453988
2494,000000	1,454110
2493,000000	1,454261
2492,000000	1,454466
2491,000000	1,454725
2490,000000	1,455236
2489,000000	1,456101
2488,000000	1,457063
2487,000000	1,457842
2486,000000	1,458470
2485,000000	1,459021
2484,000000	1,459334
2483,000000	1,459367
2482,000000	1,459461
2481,000000	1,459899
2480,000000	1,460529
2479,000000	1,461150
2478,000000	1,461900
2477,000000	1,462860
2476,000000	1,463678
2475,000000	1,464063
2474,000000	1,464312
2473,000000	1,464870
2472,000000	1,465679
2471,000000	1,466401
2470,000000	1,466962
2469,000000	1,467411
2468,000000	1,467600
2467,000000	1,467516
2466,000000	1,467644
2465,000000	1,468437
2464,000000	1,469662
2463,000000	1,470742
2462,000000	1,471496
2461,000000	1,472068
2460,000000	1,472415
2459,000000	1,472451
2458,000000	1,472484
2457,000000	1,472970
2456,000000	1,473929
2455,000000	1,475066
2454,000000	1,476265
2453,000000	1,477527
2452,000000	1,478606
2451,000000	1,479204
2450,000000	1,479428
2449,000000	1,479628
2448,000000	1,479926
2447,000000	1,480271
2446,000000	1,480762
2445,000000	1,481500
2444,000000	1,482269
2443,000000	1,482791
2442,000000	1,483141
2441,000000	1,483561
2440,000000	1,484044
2439,000000	1,484479
2438,000000	1,484980
2437,000000	1,485677
2436,000000	1,486410
2435,000000	1,487009
2434,000000	1,487702
2433,000000	1,488780
2432,000000	1,490049
2431,000000	1,491019
2430,000000	1,491515
2429,000000	1,491725
2428,000000	1,491831
2427,000000	1,491965
2426,000000	1,492349
2425,000000	1,493069
2424,000000	1,493853
2423,000000	1,494442
2422,000000	1,495009
2421,000000	1,495852
2420,000000	1,496865
2419,000000	1,497693
2418,000000	1,498240
2417,000000	1,498661
2416,000000	1,499019
2415,000000	1,499292
2414,000000	1,499578
2413,000000	1,499948
2412,000000	1,500287
2411,000000	1,500595
2410,000000	1,501208
2409,000000	1,502358
2408,000000	1,503707
2407,000000	1,504689
2406,000000	1,505176
2405,000000	1,505464
2404,000000	1,505803
2403,000000	1,506271
2402,000000	1,506934
2401,000000	1,507758
2400,000000	1,508514
2399,000000	1,509073
2398,000000	1,509622
2397,000000	1,510316
2396,000000	1,510943
2395,000000	1,511285
2394,000000	1,511512
2393,000000	1,511811
2392,000000	1,511811
2391,000000	1,510686
2390,000000	1,507732
2389,000000	1,502329
2388,000000	1,493494
2387,000000	1,479918
2386,000000	1,460091
2385,000000	1,432556
2384,000000	1,395965
2383,000000	1,349655
2382,000000	1,294371
2381,000000	1,231819
2380,000000	1,164156
2379,000000	1,093508
2378,000000	1,021912
2377,000000	0,951155
2376,000000	0,882452
2375,000000	0,816708
2374,000000	0,754789
2373,000000	0,697460
2372,000000	0,644987
2371,000000	0,597324
2370,000000	0,554384
2369,000000	0,516085
2368,000000	0,482319
2367,000000	0,452901
2366,000000	0,427877
2365,000000	0,407332
2364,000000	0,391134
2363,000000	0,379099
2362,000000	0,371101
2361,000000	0,367305
2360,000000	0,368092
2359,000000	0,374014
2358,000000	0,385960
2357,000000	0,404751
2356,000000	0,431096
2355,000000	0,465944
2354,000000	0,511202
2353,000000	0,569348
2352,000000	0,639574
2351,000000	0,712529
2350,000000	0,769285
2349,000000	0,790247
2348,000000	0,768654
2347,000000	0,716718
2346,000000	0,657037
2345,000000	0,607542
2344,000000	0,574132
2343,000000	0,554334
2342,000000	0,544403
2341,000000	0,541527
2340,000000	0,543189
2339,000000	0,547201
2338,000000	0,552715
2337,000000	0,559477
2336,000000	0,566560
2335,000000	0,572478
2334,000000	0,576401
2333,000000	0,578878
2332,000000	0,581689
2331,000000	0,587424
2330,000000	0,598356
2329,000000	0,614663
2328,000000	0,633933
2327,000000	0,652903
2326,000000	0,669689
2325,000000	0,684583
2324,000000	0,699403
2323,000000	0,716765
2322,000000	0,739010
2321,000000	0,766975
2320,000000	0,799697
2319,000000	0,835260
2318,000000	0,871501
2317,000000	0,905955
2316,000000	0,936425
2315,000000	0,962544
2314,000000	0,986225
2313,000000	1,009996
2312,000000	1,035184
2311,000000	1,062014
2310,000000	1,090520
2309,000000	1,120583
2308,000000	1,151537
2307,000000	1,182478
2306,000000	1,212667
2305,000000	1,241226
2304,000000	1,267073
2303,000000	1,289795
2302,000000	1,310121
2301,000000	1,329040
2300,000000	1,346801
2299,000000	1,363305
2298,000000	1,378823
2297,000000	1,393752
2296,000000	1,408145
2295,000000	1,421986
2294,000000	1,435545
2293,000000	1,448907
2292,000000	1,461651
2291,000000	1,473542
2290,000000	1,485042
2289,000000	1,496629
2288,000000	1,508090
2287,000000	1,518925
2286,000000	1,528916
2285,000000	1,537668
2284,000000	1,544207
2283,000000	1,547778
2282,000000	1,548676
2281,000000	1,547856
2280,000000	1,546084
2279,000000	1,543995
2278,000000	1,542339
2277,000000	1,541452
2276,000000	1,540900
2275,000000	1,540183
2274,000000	1,539492
2273,000000	1,539258
2272,000000	1,539487
2271,000000	1,540061
2270,000000	1,541191
2269,000000	1,542953
2268,000000	1,544815
2267,000000	1,546256
2266,000000	1,547495
2265,000000	1,549067
2264,000000	1,551085
2263,000000	1,553405
2262,000000	1,556066
2261,000000	1,559013
2260,000000	1,561834
2259,000000	1,564273
2258,000000	1,566629
2257,000000	1,569185
2256,000000	1,571721
2255,000000	1,574035
2254,000000	1,576377
2253,000000	1,578891
2252,000000	1,581198
2251,000000	1,583062
2250,000000	1,584875
2249,000000	1,586910
2248,000000	1,588752
2247,000000	1,590086
2246,000000	1,591415
2245,000000	1,593241
2244,000000	1,595138
2243,000000	1,596400
2242,000000	1,597158
2241,000000	1,598058
2240,000000	1,599255
2239,000000	1,600461
2238,000000	1,601637
2237,000000	1,602917
2236,000000	1,604146
2235,000000	1,605145
2234,000000	1,606146
2233,000000	1,607388
2232,000000	1,608625
2231,000000	1,609533
2230,000000	1,610250
2229,000000	1,611012
2228,000000	1,611694
2227,000000	1,612247
2226,000000	1,613072
2225,000000	1,614395
2224,000000	1,615711
2223,000000	1,616461
2222,000000	1,616801
2221,000000	1,617146
2220,000000	1,617480
2219,000000	1,617693
2218,000000	1,618093
2217,000000	1,618898
2216,000000	1,619699
2215,000000	1,620040
2214,000000	1,620089
2213,000000	1,620166
2212,000000	1,620121
2211,000000	1,619860
2210,000000	1,619939
2209,000000	1,620904
2208,000000	1,622405
2207,000000	1,623669
2206,000000	1,624463
2205,000000	1,625025
2204,000000	1,625447
2203,000000	1,625781
2202,000000	1,626300
2201,000000	1,627064
2200,000000	1,627638
2199,000000	1,627787
2198,000000	1,627992
2197,000000	1,628698
2196,000000	1,629608
2195,000000	1,630306
2194,000000	1,631025
2193,000000	1,632086
2192,000000	1,633137
2191,000000	1,633693
2190,000000	1,633961
2189,000000	1,634407
2188,000000	1,634950
2187,000000	1,635284
2186,000000	1,635583
2185,000000	1,636138
2184,000000	1,636698
2183,000000	1,636876
2182,000000	1,636857
2181,000000	1,637072
2180,000000	1,637510
2179,000000	1,637942
2178,000000	1,638392
2177,000000	1,638854
2176,000000	1,639005
2175,000000	1,638799
2174,000000	1,638830
2173,000000	1,639484
2172,000000	1,640259
2171,000000	1,640576
2170,000000	1,640744
2169,000000	1,641414
2168,000000	1,642536
2167,000000	1,643543
2166,000000	1,644150
2165,000000	1,644332
2164,000000	1,643988
2163,000000	1,643285
2162,000000	1,642893
2161,000000	1,643255
2160,000000	1,644034
2159,000000	1,644794
2158,000000	1,645659
2157,000000	1,646746
2156,000000	1,647593
2155,000000	1,647859
2154,000000	1,647996
2153,000000	1,648503
2152,000000	1,649069
2151,000000	1,649169
2150,000000	1,648971
2149,000000	1,648952
2148,000000	1,649135
2147,000000	1,649402
2146,000000	1,649992
2145,000000	1,650952
2144,000000	1,651661
2143,000000	1,651672
2142,000000	1,651473
2141,000000	1,651680
2140,000000	1,652033
2139,000000	1,651996
2138,000000	1,651821
2137,000000	1,652154
2136,000000	1,653020
2135,000000	1,654002
2134,000000	1,655024
2133,000000	1,656221
2132,000000	1,657415
2131,000000	1,658397
2130,000000	1,659301
2129,000000	1,660139
2128,000000	1,660495
2127,000000	1,660299
2126,000000	1,660270
2125,000000	1,660928
2124,000000	1,661789
2123,000000	1,662266
2122,000000	1,662701
2121,000000	1,663667
2120,000000	1,664841
2119,000000	1,665446
2118,000000	1,665391
2117,000000	1,665180
2116,000000	1,665164
2115,000000	1,665565
2114,000000	1,666730
2113,000000	1,668602
2112,000000	1,670410
2111,000000	1,671560
2110,000000	1,672377
2109,000000	1,673356
2108,000000	1,674306
2107,000000	1,674872
2106,000000	1,675277
2105,000000	1,675856
2104,000000	1,676447
2103,000000	1,676932
2102,000000	1,677730
2101,000000	1,679076
2100,000000	1,680450
2099,000000	1,681403
2098,000000	1,682243
2097,000000	1,683283
2096,000000	1,684138
2095,000000	1,684407
2094,000000	1,684285
2093,000000	1,683875
2092,000000	1,682866
2091,000000	1,681616
2090,000000	1,681514
2089,000000	1,683292
2088,000000	1,685900
2087,000000	1,687955
2086,000000	1,689432
2085,000000	1,690947
2084,000000	1,692365
2083,000000	1,693263
2082,000000	1,693946
2081,000000	1,694834
2080,000000	1,695533
2079,000000	1,695591
2078,000000	1,695458
2077,000000	1,695738
2076,000000	1,696236
2075,000000	1,696731
2074,000000	1,697790
2073,000000	1,699778
2072,000000	1,701902
2071,000000	1,703247
2070,000000	1,703776
2069,000000	1,703271
2068,000000	1,700660
2067,000000	1,696019
2066,000000	1,692166
2065,000000	1,692302
2064,000000	1,696484
2063,000000	1,701929
2062,000000	1,706318
2061,000000	1,709289
2060,000000	1,711272
2059,000000	1,712645
2058,000000	1,713942
2057,000000	1,715472
2056,000000	1,716691
2055,000000	1,717031
2054,000000	1,717028
2053,000000	1,717601
2052,000000	1,718645
2051,000000	1,719488
2050,000000	1,720203
2049,000000	1,721276
2048,000000	1,722395
2047,000000	1,722762
2046,000000	1,722131
2045,000000	1,720537
2044,000000	1,717741
2043,000000	1,714296
2042,000000	1,712381
2041,000000	1,713934
2040,000000	1,718264
2039,000000	1,722863
2038,000000	1,726228
2037,000000	1,728535
2036,000000	1,730159
2035,000000	1,731163
2034,000000	1,732006
2033,000000	1,733224
2032,000000	1,734464
2031,000000	1,735045
2030,000000	1,735222
2029,000000	1,735747
2028,000000	1,736515
2027,000000	1,736910
2026,000000	1,737086
2025,000000	1,737631
2024,000000	1,738349
2023,000000	1,738477
2022,000000	1,737449
2021,000000	1,734301
2020,000000	1,727580
2019,000000	1,717961
2018,000000	1,710179
2017,000000	1,709762
2016,000000	1,717458
2015,000000	1,728643
2014,000000	1,738253
2013,000000	1,744349
2012,000000	1,747208
2011,000000	1,747569
2010,000000	1,746730
2009,000000	1,746465
2008,000000	1,747542
2007,000000	1,749304
2006,000000	1,751102
2005,000000	1,752944
2004,000000	1,754485
2003,000000	1,754890
2002,000000	1,754140
2001,000000	1,753235
2000,000000	1,752839
1999,000000	1,753028
1998,000000	1,754068
1997,000000	1,755053
1996,000000	1,751734
1995,000000	1,739159
1994,000000	1,718678
1993,000000	1,700144
1992,000000	1,694078
1991,000000	1,702029
1990,000000	1,716716
1989,000000	1,730557
1988,000000	1,741422
1987,000000	1,750547
1986,000000	1,758225
1985,000000	1,763512
1984,000000	1,766376
1983,000000	1,767967
1982,000000	1,769123
1981,000000	1,769847
1980,000000	1,770106
1979,000000	1,770187
1978,000000	1,770377
1977,000000	1,770824
1976,000000	1,771623
1975,000000	1,772675
1974,000000	1,773673
1973,000000	1,774352
1972,000000	1,773815
1971,000000	1,769392
1970,000000	1,758149
1969,000000	1,741576
1968,000000	1,727774
1967,000000	1,725873
1966,000000	1,737356
1965,000000	1,754475
1964,000000	1,767908
1963,000000	1,774366
1962,000000	1,776385
1961,000000	1,777347
1960,000000	1,778655
1959,000000	1,780111
1958,000000	1,780816
1957,000000	1,780136
1956,000000	1,778992
1955,000000	1,779528
1954,000000	1,782537
1953,000000	1,786345
1952,000000	1,788987
1951,000000	1,790008
1950,000000	1,789354
1949,000000	1,786289
1948,000000	1,780339
1947,000000	1,770782
1946,000000	1,754471
1945,000000	1,728814
1944,000000	1,700288
1943,000000	1,685452
1942,000000	1,697058
1941,000000	1,730012
1940,000000	1,765665
1939,000000	1,789604
1938,000000	1,800840
1937,000000	1,805100
1936,000000	1,806181
1935,000000	1,805570
1934,000000	1,805119
1933,000000	1,806221
1932,000000	1,808408
1931,000000	1,810699
1930,000000	1,813129
1929,000000	1,815639
1928,000000	1,816241
1927,000000	1,810556
1926,000000	1,793686
1925,000000	1,766097
1924,000000	1,738715
1923,000000	1,726140
1922,000000	1,729203
1921,000000	1,729725
1920,000000	1,711840
1919,000000	1,685837
1918,000000	1,680080
1917,000000	1,708011
1916,000000	1,753601
1915,000000	1,791218
1914,000000	1,809189
1913,000000	1,809780
1912,000000	1,797941
1911,000000	1,780115
1910,000000	1,767227
1909,000000	1,768084
1908,000000	1,780657
1907,000000	1,795976
1906,000000	1,808404
1905,000000	1,817576
1904,000000	1,823617
1903,000000	1,826570
1902,000000	1,828684
1901,000000	1,831942
1900,000000	1,833962
1899,000000	1,829979
1898,000000	1,818284
1897,000000	1,802362
1896,000000	1,789426
1895,000000	1,786415
1894,000000	1,792228
1893,000000	1,793167
1892,000000	1,774699
1891,000000	1,741853
1890,000000	1,720223
1889,000000	1,729491
1888,000000	1,762142
1887,000000	1,794688
1886,000000	1,813842
1885,000000	1,823284
1884,000000	1,829926
1883,000000	1,835297
1882,000000	1,839172
1881,000000	1,842420
1880,000000	1,844631
1879,000000	1,844888
1878,000000	1,844768
1877,000000	1,846368
1876,000000	1,848566
1875,000000	1,848203
1874,000000	1,841286
1873,000000	1,818098
1872,000000	1,765394
1871,000000	1,684589
1870,000000	1,605225
1869,000000	1,567480
1868,000000	1,588603
1867,000000	1,651532
1866,000000	1,724577
1865,000000	1,784412
1864,000000	1,821594
1863,000000	1,837198
1862,000000	1,839677
1861,000000	1,838958
1860,000000	1,839397
1859,000000	1,840574
1858,000000	1,843341
1857,000000	1,849340
1856,000000	1,855939
1855,000000	1,858581
1854,000000	1,858028
1853,000000	1,857895
1852,000000	1,855500
1851,000000	1,843981
1850,000000	1,822380
1849,000000	1,793518
1848,000000	1,750875
1847,000000	1,682257
1846,000000	1,595575
1845,000000	1,530623
1844,000000	1,530480
1843,000000	1,600141
1842,000000	1,699869
1841,000000	1,779866
1840,000000	1,817390
1839,000000	1,822642
1838,000000	1,817976
1837,000000	1,817826
1836,000000	1,824484
1835,000000	1,831024
1834,000000	1,821832
1833,000000	1,778584
1832,000000	1,700345
1831,000000	1,619509
1830,000000	1,581770
1829,000000	1,600346
1828,000000	1,639827
1827,000000	1,658512
1826,000000	1,656383
1825,000000	1,667573
1824,000000	1,711528
1823,000000	1,770747
1822,000000	1,817431
1821,000000	1,841818
1820,000000	1,849341
1819,000000	1,846671
1818,000000	1,841127
1817,000000	1,841602
1816,000000	1,848486
1815,000000	1,848484
1814,000000	1,828490
1813,000000	1,792056
1812,000000	1,756613
1811,000000	1,738765
1810,000000	1,744895
1809,000000	1,770142
1808,000000	1,801227
1807,000000	1,823534
1806,000000	1,828846
1805,000000	1,814669
1804,000000	1,779208
1803,000000	1,726001
1802,000000	1,672958
1801,000000	1,645054
1800,000000	1,652762
1799,000000	1,683772
1798,000000	1,716780
1797,000000	1,732228
1796,000000	1,711373
1795,000000	1,643697
1794,000000	1,548592
1793,000000	1,476715
1792,000000	1,475176
1791,000000	1,548835
1790,000000	1,658796
1789,000000	1,753399
1788,000000	1,798871
1787,000000	1,794389
1786,000000	1,768189
1785,000000	1,751797
1784,000000	1,751024
1783,000000	1,747657
1782,000000	1,731998
1781,000000	1,720351
1780,000000	1,731182
1779,000000	1,756854
1778,000000	1,771298
1777,000000	1,753861
1776,000000	1,693998
1775,000000	1,589309
1774,000000	1,461793
1773,000000	1,365462
1772,000000	1,349151
1771,000000	1,407571
1770,000000	1,490065
1769,000000	1,560211
1768,000000	1,625304
1767,000000	1,699812
1766,000000	1,762772
1765,000000	1,773139
1764,000000	1,721217
1763,000000	1,648694
1762,000000	1,612392
1761,000000	1,631028
1760,000000	1,671718
1759,000000	1,689098
1758,000000	1,676721
1757,000000	1,670456
1756,000000	1,694675
1755,000000	1,720267
1754,000000	1,692968
1753,000000	1,599528
1752,000000	1,486012
1751,000000	1,409015
1750,000000	1,389647
1749,000000	1,417232
1748,000000	1,473473
1747,000000	1,537698
1746,000000	1,586230
1745,000000	1,606585
1744,000000	1,605050
1743,000000	1,589349
1742,000000	1,557348
1741,000000	1,518276
1740,000000	1,504872
1739,000000	1,533705
1738,000000	1,558278
1737,000000	1,503083
1736,000000	1,356949
1735,000000	1,207778
1734,000000	1,161660
1733,000000	1,240592
1732,000000	1,378767
1731,000000	1,504407
1730,000000	1,598604
1729,000000	1,676987
1728,000000	1,744439
1727,000000	1,786412
1726,000000	1,793878
1725,000000	1,779039
1724,000000	1,763565
1723,000000	1,750787
1722,000000	1,713553
1721,000000	1,613469
1720,000000	1,445383
1719,000000	1,262127
1718,000000	1,142451
1717,000000	1,129121
1716,000000	1,204741
1715,000000	1,325052
1714,000000	1,457077
1713,000000	1,578928
1712,000000	1,666553
1711,000000	1,703635
1710,000000	1,694643
1709,000000	1,650881
1708,000000	1,576327
1707,000000	1,486914
1706,000000	1,424674
1705,000000	1,412663
1704,000000	1,403695
1703,000000	1,320046
1702,000000	1,159444
1701,000000	1,020115
1700,000000	0,990242
1699,000000	1,045816
1698,000000	1,097894
1697,000000	1,116742
1696,000000	1,161892
1695,000000	1,287724
1694,000000	1,463134
1693,000000	1,603617
1692,000000	1,656648
1691,000000	1,639603
1690,000000	1,601306
1689,000000	1,562605
1688,000000	1,493244
1687,000000	1,352162
1686,000000	1,158305
1685,000000	1,007080
1684,000000	0,993147
1683,000000	1,119088
1682,000000	1,298958
1681,000000	1,449057
1680,000000	1,542426
1679,000000	1,577110
1678,000000	1,542479
1677,000000	1,449210
1676,000000	1,359448
1675,000000	1,338049
1674,000000	1,377524
1673,000000	1,404073
1672,000000	1,365809
1671,000000	1,291151
1670,000000	1,254837
1669,000000	1,304881
1668,000000	1,425080
1667,000000	1,549671
1666,000000	1,608809
1665,000000	1,578467
1664,000000	1,502995
1663,000000	1,459806
1662,000000	1,490341
1661,000000	1,569890
1660,000000	1,643160
1659,000000	1,671421
1658,000000	1,634727
1657,000000	1,509517
1656,000000	1,285620
1655,000000	1,015643
1654,000000	0,819706
1653,000000	0,803102
1652,000000	0,957716
1651,000000	1,157477
1650,000000	1,260801
1649,000000	1,226395
1648,000000	1,131598
1647,000000	1,091302
1646,000000	1,162319
1645,000000	1,314977
1644,000000	1,474183
1643,000000	1,582000
1642,000000	1,625013
1641,000000	1,616629
1640,000000	1,561940
1639,000000	1,450157
1638,000000	1,288271
1637,000000	1,132703
1636,000000	1,067458
1635,000000	1,137716
1634,000000	1,307273
1633,000000	1,486853
1632,000000	1,599536
1631,000000	1,622550
1630,000000	1,583488
1629,000000	1,530456
1628,000000	1,497650
1627,000000	1,483330
1626,000000	1,458722
1625,000000	1,409678
1624,000000	1,366622
1623,000000	1,378062
1622,000000	1,449400
1621,000000	1,519844
1620,000000	1,513769
1619,000000	1,415718
1618,000000	1,289906
1617,000000	1,228291
1616,000000	1,276137
1615,000000	1,401300
1614,000000	1,528141
1613,000000	1,599429
1612,000000	1,609916
1611,000000	1,590491
1610,000000	1,570676
1609,000000	1,562276
1608,000000	1,566687
1607,000000	1,581708
1606,000000	1,598971
1605,000000	1,607665
1604,000000	1,606565
1603,000000	1,606346
1602,000000	1,615776
1601,000000	1,631383
1600,000000	1,644151
1599,000000	1,649470
1598,000000	1,646665
1597,000000	1,635963
1596,000000	1,622153
1595,000000	1,615356
1594,000000	1,621071
1593,000000	1,632899
1592,000000	1,641171
1591,000000	1,645135
1590,000000	1,650271
1589,000000	1,657509
1588,000000	1,662804
1587,000000	1,665296
1586,000000	1,667792
1585,000000	1,669856
1584,000000	1,668410
1583,000000	1,664994
1582,000000	1,662854
1581,000000	1,650684
1580,000000	1,599198
1579,000000	1,486770
1578,000000	1,336379
1577,000000	1,219362
1576,000000	1,207885
1575,000000	1,309550
1574,000000	1,447145
1573,000000	1,515714
1572,000000	1,472173
1571,000000	1,370797
1570,000000	1,307226
1569,000000	1,329840
1568,000000	1,406919
1567,000000	1,475188
1566,000000	1,504295
1565,000000	1,505907
1564,000000	1,486034
1563,000000	1,408904
1562,000000	1,230404
1561,000000	0,972457
1560,000000	0,745347
1559,000000	0,668410
1558,000000	0,763098
1557,000000	0,941142
1556,000000	1,101266
1555,000000	1,214835
1554,000000	1,306633
1553,000000	1,385566
1552,000000	1,432318
1551,000000	1,446836
1550,000000	1,460385
1549,000000	1,487977
1548,000000	1,497218
1547,000000	1,447659
1546,000000	1,341626
1545,000000	1,215979
1544,000000	1,094800
1543,000000	0,973961
1542,000000	0,853968
1541,000000	0,771106
1540,000000	0,783567
1539,000000	0,918731
1538,000000	1,128624
1537,000000	1,305068
1536,000000	1,361591
1535,000000	1,312474
1534,000000	1,257222
1533,000000	1,279751
1532,000000	1,371034
1531,000000	1,456739
1530,000000	1,478200
1529,000000	1,433718
1528,000000	1,358589
1527,000000	1,290842
1526,000000	1,246828
1525,000000	1,208763
1524,000000	1,143211
1523,000000	1,050052
1522,000000	0,982987
1521,000000	0,994116
1520,000000	1,066458
1519,000000	1,132400
1518,000000	1,160470
1517,000000	1,187404
1516,000000	1,253727
1515,000000	1,342146
1514,000000	1,402285
1513,000000	1,411875
1512,000000	1,380865
1511,000000	1,309963
1510,000000	1,182067
1509,000000	1,005699
1508,000000	0,845561
1507,000000	0,790951
1506,000000	0,888517
1505,000000	1,101983
1504,000000	1,333319
1503,000000	1,487681
1502,000000	1,528776
1501,000000	1,480851
1500,000000	1,389152
1499,000000	1,289257
1498,000000	1,211813
1497,000000	1,190266
1496,000000	1,241311
1495,000000	1,335968
1494,000000	1,408188
1493,000000	1,403906
1492,000000	1,326011
1491,000000	1,230883
1490,000000	1,182389
1489,000000	1,206878
1488,000000	1,288541
1487,000000	1,396785
1486,000000	1,507453
1485,000000	1,599118
1484,000000	1,650568
1483,000000	1,658981
1482,000000	1,650239
1481,000000	1,650865
1480,000000	1,652332
1479,000000	1,622685
1478,000000	1,551163
1477,000000	1,458620
1476,000000	1,363520
1475,000000	1,266194
1474,000000	1,180684
1473,000000	1,153276
1472,000000	1,223351
1471,000000	1,372197
1470,000000	1,529049
1469,000000	1,623370
1468,000000	1,625394
1467,000000	1,554964
1466,000000	1,470087
1465,000000	1,435905
1464,000000	1,476081
1463,000000	1,548313
1462,000000	1,575035
1461,000000	1,503398
1460,000000	1,337667
1459,000000	1,135784
1458,000000	0,985094
1457,000000	0,960240
1456,000000	1,071241
1455,000000	1,251611
1454,000000	1,412715
1453,000000	1,510684
1452,000000	1,552857
1451,000000	1,556272
1450,000000	1,530708
1449,000000	1,497696
1448,000000	1,493042
1447,000000	1,534107
1446,000000	1,600239
1445,000000	1,656644
1444,000000	1,687830
1443,000000	1,701016
1442,000000	1,703971
1441,000000	1,686618
1440,000000	1,624728
1439,000000	1,508611
1438,000000	1,375655
1437,000000	1,300995
1436,000000	1,334284
1435,000000	1,446490
1434,000000	1,554199
1433,000000	1,598567
1432,000000	1,585865
1431,000000	1,558916
1430,000000	1,552833
1429,000000	1,577726
1428,000000	1,617926
1427,000000	1,640129
1426,000000	1,622628
1425,000000	1,583222
1424,000000	1,557315
1423,000000	1,542124
1422,000000	1,492813
1421,000000	1,389694
1420,000000	1,284264
1419,000000	1,253017
1418,000000	1,317543
1417,000000	1,433329
1416,000000	1,542374
1415,000000	1,615022
1414,000000	1,648202
1413,000000	1,651891
1412,000000	1,643938
1411,000000	1,640593
1410,000000	1,642960
1409,000000	1,637708
1408,000000	1,612760
1407,000000	1,569635
1406,000000	1,525805
1405,000000	1,506350
1404,000000	1,522220
1403,000000	1,550184
1402,000000	1,547431
1401,000000	1,498192
1400,000000	1,434972
1399,000000	1,398040
1398,000000	1,387922
1397,000000	1,377355
1396,000000	1,361328
1395,000000	1,369255
1394,000000	1,423401
1393,000000	1,506573
1392,000000	1,576268
1391,000000	1,598558
1390,000000	1,567162
1389,000000	1,505682
1388,000000	1,457579
1387,000000	1,458329
1386,000000	1,506043
1385,000000	1,565826
1384,000000	1,606011
1383,000000	1,621575
1382,000000	1,623065
1381,000000	1,617583
1380,000000	1,607888
1379,000000	1,596466
1378,000000	1,579438
1377,000000	1,546271
1376,000000	1,498010
1375,000000	1,459358
1374,000000	1,459139
1373,000000	1,498888
1372,000000	1,549231
1371,000000	1,579658
1370,000000	1,585312
1369,000000	1,583414
1368,000000	1,588378
1367,000000	1,593193
1366,000000	1,576683
1365,000000	1,529268
1364,000000	1,470051
1363,000000	1,435019
1362,000000	1,445756
1361,000000	1,492419
1360,000000	1,546867
1359,000000	1,586763
1358,000000	1,606106
1357,000000	1,609961
1356,000000	1,607002
1355,000000	1,605525
1354,000000	1,609406
1353,000000	1,615571
1352,000000	1,618145
1351,000000	1,615704
1350,000000	1,612514
1349,000000	1,612743
1348,000000	1,616009
1347,000000	1,619451
1346,000000	1,621451
1345,000000	1,620579
1344,000000	1,611539
1343,000000	1,586259
1342,000000	1,543126
1341,000000	1,494817
1340,000000	1,463250
1339,000000	1,463289
1338,000000	1,491460
1337,000000	1,531695
1336,000000	1,569212
1335,000000	1,597277
1334,000000	1,614595
1333,000000	1,622083
1332,000000	1,623062
1331,000000	1,622242
1330,000000	1,622213
1329,000000	1,622407
1328,000000	1,621945
1327,000000	1,621263
1326,000000	1,620625
1325,000000	1,619287
1324,000000	1,616337
1323,000000	1,610520
1322,000000	1,599724
1321,000000	1,583629
1320,000000	1,567296
1319,000000	1,558671
1318,000000	1,560748
1317,000000	1,568228
1316,000000	1,573236
1315,000000	1,573135
1314,000000	1,571613
1313,000000	1,573545
1312,000000	1,580168
1311,000000	1,588348
1310,000000	1,593672
1309,000000	1,594546
1308,000000	1,593321
1307,000000	1,593202
1306,000000	1,594665
1305,000000	1,595946
1304,000000	1,596150
1303,000000	1,595942
1302,000000	1,595658
1301,000000	1,594671
1300,000000	1,592845
1299,000000	1,590922
1298,000000	1,589333
1297,000000	1,587999
1296,000000	1,587242
1295,000000	1,587404
1294,000000	1,587594
1293,000000	1,586274
1292,000000	1,583092
1291,000000	1,578912
1290,000000	1,574392
1289,000000	1,570112
1288,000000	1,567572
1287,000000	1,568087
1286,000000	1,570637
1285,000000	1,572611
1284,000000	1,572710
1283,000000	1,571614
1282,000000	1,570001
1281,000000	1,567758
1280,000000	1,565236
1279,000000	1,563348
1278,000000	1,561998
1277,000000	1,559894
1276,000000	1,556131
1275,000000	1,550652
1274,000000	1,543405
1273,000000	1,534672
1272,000000	1,526273
1271,000000	1,520514
1270,000000	1,517546
1269,000000	1,515196
1268,000000	1,511682
1267,000000	1,507156
1266,000000	1,502344
1265,000000	1,497237
1264,000000	1,491582
1263,000000	1,485606
1262,000000	1,479976
1261,000000	1,475923
1260,000000	1,475182
1259,000000	1,478411
1258,000000	1,483806
1257,000000	1,488595
1256,000000	1,491775
1255,000000	1,494200
1254,000000	1,496283
1253,000000	1,497331
1252,000000	1,497124
1251,000000	1,496422
1250,000000	1,495596
1249,000000	1,494207
1248,000000	1,492135
1247,000000	1,489844
1246,000000	1,487437
1245,000000	1,484724
1244,000000	1,482301
1243,000000	1,481119
1242,000000	1,480858
1241,000000	1,480120
1240,000000	1,478393
1239,000000	1,476497
1238,000000	1,474930
1237,000000	1,473213
1236,000000	1,471135
1235,000000	1,469291
1234,000000	1,467968
1233,000000	1,466642
1232,000000	1,464926
1231,000000	1,462959
1230,000000	1,460658
1229,000000	1,457632
1228,000000	1,454076
1227,000000	1,450756
1226,000000	1,447987
1225,000000	1,445507
1224,000000	1,443323
1223,000000	1,441626
1222,000000	1,439893
1221,000000	1,437248
1220,000000	1,433798
1219,000000	1,430514
1218,000000	1,427720
1217,000000	1,424727
1216,000000	1,421025
1215,000000	1,416832
1214,000000	1,412497
1213,000000	1,408346
1212,000000	1,405054
1211,000000	1,403033
1210,000000	1,401532
1209,000000	1,399413
1208,000000	1,396717
1207,000000	1,394406
1206,000000	1,392681
1205,000000	1,390833
1204,000000	1,388627
1203,000000	1,386524
1202,000000	1,384479
1201,000000	1,381868
1200,000000	1,378744
1199,000000	1,375971
1198,000000	1,373913
1197,000000	1,372072
1196,000000	1,370159
1195,000000	1,368400
1194,000000	1,366668
1193,000000	1,364417
1192,000000	1,361606
1191,000000	1,358655
1190,000000	1,355474
1189,000000	1,351631
1188,000000	1,347534
1187,000000	1,344202
1186,000000	1,341717
1185,000000	1,339000
1184,000000	1,335279
1183,000000	1,330760
1182,000000	1,325829
1181,000000	1,320758
1180,000000	1,316318
1179,000000	1,313400
1178,000000	1,311684
1177,000000	1,309792
1176,000000	1,307038
1175,000000	1,304020
1174,000000	1,301257
1173,000000	1,298357
1172,000000	1,294884
1171,000000	1,291028
1170,000000	1,286984
1169,000000	1,282545
1168,000000	1,277712
1167,000000	1,272945
1166,000000	1,268485
1165,000000	1,264115
1164,000000	1,259740
1163,000000	1,255539
1162,000000	1,251432
1161,000000	1,247180
1160,000000	1,243065
1159,000000	1,239691
1158,000000	1,237003
1157,000000	1,234281
1156,000000	1,231181
1155,000000	1,227989
1154,000000	1,224887
1153,000000	1,221790
1152,000000	1,218917
1151,000000	1,216633
1150,000000	1,214631
1149,000000	1,212177
1148,000000	1,209212
1147,000000	1,206381
1146,000000	1,203987
1145,000000	1,201773
1144,000000	1,199790
1143,000000	1,198457
1142,000000	1,197650
1141,000000	1,196638
1140,000000	1,195103
1139,000000	1,193385
1138,000000	1,191664
1137,000000	1,189742
1136,000000	1,187746
1135,000000	1,186110
1134,000000	1,184725
1133,000000	1,182968
1132,000000	1,180712
1131,000000	1,178474
1130,000000	1,176459
1129,000000	1,174325
1128,000000	1,172022
1127,000000	1,169954
1126,000000	1,168143
1125,000000	1,166101
1124,000000	1,163715
1123,000000	1,161466
1122,000000	1,159579
1121,000000	1,157803
1120,000000	1,156166
1119,000000	1,155107
1118,000000	1,154685
1117,000000	1,154457
1116,000000	1,154370
1115,000000	1,154937
1114,000000	1,156340
1113,000000	1,158201
1112,000000	1,160401
1111,000000	1,163391
1110,000000	1,167394
1109,000000	1,172048
1108,000000	1,177117
1107,000000	1,182757
1106,000000	1,188899
1105,000000	1,195069
1104,000000	1,201085
1103,000000	1,207276
1102,000000	1,213765
1101,000000	1,220181
1100,000000	1,226235
1099,000000	1,231940
1098,000000	1,237036
1097,000000	1,240995
1096,000000	1,243800
1095,000000	1,246114
1094,000000	1,248449
1093,000000	1,250676
1092,000000	1,252545
1091,000000	1,254010
1090,000000	1,254898
1089,000000	1,254935
1088,000000	1,254238
1087,000000	1,253254
1086,000000	1,252054
1085,000000	1,250271
1084,000000	1,247868
1083,000000	1,245249
1082,000000	1,242551
1081,000000	1,239480
1080,000000	1,236019
1079,000000	1,232598
1078,000000	1,229401
1077,000000	1,226157
1076,000000	1,222813
1075,000000	1,219732
1074,000000	1,216996
1073,000000	1,214148
1072,000000	1,210883
1071,000000	1,207458
1070,000000	1,204128
1069,000000	1,200727
1068,000000	1,197019
1067,000000	1,193012
1066,000000	1,188761
1065,000000	1,184308
1064,000000	1,179935
1063,000000	1,175971
1062,000000	1,172242
1061,000000	1,168196
1060,000000	1,163590
1059,000000	1,158551
1058,000000	1,152905
1057,000000	1,146013
1056,000000	1,137456
1055,000000	1,127320
1054,000000	1,115945
1053,000000	1,104035
1052,000000	1,093149
1051,000000	1,085213
1050,000000	1,081272
1049,000000	1,080983
1048,000000	1,083326
1047,000000	1,087236
1046,000000	1,091389
1045,000000	1,094381
1044,000000	1,095526
1043,000000	1,095110
1042,000000	1,093594
1041,000000	1,091039
1040,000000	1,087455
1039,000000	1,083196
1038,000000	1,078699
1037,000000	1,074086
1036,000000	1,069282
1035,000000	1,064150
1034,000000	1,058492
1033,000000	1,052322
1032,000000	1,046139
1031,000000	1,040514
1030,000000	1,035382
1029,000000	1,030172
1028,000000	1,024645
1027,000000	1,019042
1026,000000	1,013411
1025,000000	1,007437
1024,000000	1,001072
1023,000000	0,994796
1022,000000	0,989010
1021,000000	0,983657
1020,000000	0,978556
1019,000000	0,973675
1018,000000	0,968922
1017,000000	0,964178
1016,000000	0,959649
1015,000000	0,955766
1014,000000	0,952569
1013,000000	0,949604
1012,000000	0,946561
1011,000000	0,943565
1010,000000	0,940767
1009,000000	0,938114
1008,000000	0,935612
1007,000000	0,933397
1006,000000	0,931439
1005,000000	0,929572
1004,000000	0,927906
1003,000000	0,926690
1002,000000	0,925735
1001,000000	0,924456
1000,000000	0,922629
999,000000	0,920621
998,000000	0,918782
997,000000	0,917089
996,000000	0,915497
995,000000	0,914122
994,000000	0,912903
993,000000	0,911572
992,000000	0,910132
991,000000	0,908931
990,000000	0,908039
989,000000	0,907037
988,000000	0,905626
987,000000	0,904025
986,000000	0,902567
985,000000	0,901260
984,000000	0,900008
983,000000	0,898882
982,000000	0,897947
981,000000	0,897081
980,000000	0,896170
979,000000	0,895234
978,000000	0,894260
977,000000	0,893165
976,000000	0,891994
975,000000	0,890848
974,000000	0,889614
973,000000	0,888071
972,000000	0,886334
971,000000	0,884814
970,000000	0,883694
969,000000	0,882784
968,000000	0,881892
967,000000	0,880951
966,000000	0,879761
965,000000	0,878077
964,000000	0,876056
963,000000	0,874194
962,000000	0,872697
961,000000	0,871320
960,000000	0,869886
959,000000	0,868535
958,000000	0,867341
957,000000	0,866098
956,000000	0,864683
955,000000	0,863239
954,000000	0,861827
953,000000	0,860277
952,000000	0,858562
951,000000	0,856947
950,000000	0,855594
949,000000	0,854320
948,000000	0,852957
947,000000	0,851624
946,000000	0,850441
945,000000	0,849265
944,000000	0,847879
943,000000	0,846242
942,000000	0,844402
941,000000	0,842381
940,000000	0,840255
939,000000	0,838149
938,000000	0,836073
937,000000	0,833972
936,000000	0,831956
935,000000	0,830239
934,000000	0,828822
933,000000	0,827468
932,000000	0,825971
931,000000	0,824217
930,000000	0,822065
929,000000	0,819543
928,000000	0,817118
927,000000	0,815331
926,000000	0,814135
925,000000	0,812917
924,000000	0,811238
923,000000	0,809116
922,000000	0,806633
921,000000	0,803738
920,000000	0,800617
919,000000	0,797772
918,000000	0,795467
917,000000	0,793405
916,000000	0,791095
915,000000	0,788325
914,000000	0,785143
913,000000	0,781720
912,000000	0,778350
911,000000	0,775311
910,000000	0,772572
909,000000	0,769897
908,000000	0,767271
907,000000	0,764916
906,000000	0,762832
905,000000	0,760699
904,000000	0,758350
903,000000	0,755995
902,000000	0,753810
901,000000	0,751654
900,000000	0,749381
899,000000	0,747111
898,000000	0,745002
897,000000	0,743022
896,000000	0,741137
895,000000	0,739455
894,000000	0,737985
893,000000	0,736489
892,000000	0,734730
891,000000	0,732694
890,000000	0,730396
889,000000	0,727740
888,000000	0,724686
887,000000	0,721364
886,000000	0,717884
885,000000	0,714235
884,000000	0,710499
883,000000	0,706891
882,000000	0,703458
881,000000	0,700000
880,000000	0,696489
879,000000	0,693299
878,000000	0,690805
877,000000	0,688985
876,000000	0,687644
875,000000	0,686855
874,000000	0,686886
873,000000	0,687757
872,000000	0,689150
871,000000	0,690687
870,000000	0,692151
869,000000	0,693466
868,000000	0,694622
867,000000	0,695631
866,000000	0,696456
865,000000	0,696992
864,000000	0,697189
863,000000	0,697158
862,000000	0,697081
861,000000	0,697074
860,000000	0,697151
859,000000	0,697257
858,000000	0,697291
857,000000	0,697126
856,000000	0,696670
855,000000	0,695917
854,000000	0,694971
853,000000	0,694071
852,000000	0,693524
851,000000	0,693472
850,000000	0,693727
849,000000	0,693958
848,000000	0,694039
847,000000	0,694095
846,000000	0,694238
845,000000	0,694400
844,000000	0,694453
843,000000	0,694354
842,000000	0,694101
841,000000	0,693678
840,000000	0,693104
839,000000	0,692445
838,000000	0,691700
837,000000	0,690718
836,000000	0,689289
835,000000	0,687283
834,000000	0,684663
833,000000	0,681425
832,000000	0,677552
831,000000	0,673036
830,000000	0,667930
829,000000	0,662413
828,000000	0,656849
827,000000	0,651813
826,000000	0,648033
825,000000	0,646163
824,000000	0,646477
823,000000	0,648685
822,000000	0,652157
821,000000	0,656355
820,000000	0,660923
819,000000	0,665454
818,000000	0,669383
817,000000	0,672329
816,000000	0,674350
815,000000	0,675716
814,000000	0,676503
813,000000	0,676634
812,000000	0,676199
811,000000	0,675467
810,000000	0,674594
809,000000	0,673502
808,000000	0,672131
807,000000	0,670596
806,000000	0,669021
805,000000	0,667384
804,000000	0,665662
803,000000	0,664007
802,000000	0,662647
801,000000	0,661634
800,000000	0,660850
799,000000	0,660243
798,000000	0,659915
797,000000	0,659926
796,000000	0,660147
795,000000	0,660397
794,000000	0,660681
793,000000	0,661136
792,000000	0,661782
791,000000	0,662465
790,000000	0,663076
789,000000	0,663669
788,000000	0,664284
787,000000	0,664796
786,000000	0,665070
785,000000	0,665179
784,000000	0,665306
783,000000	0,665463
782,000000	0,665459
781,000000	0,665128
780,000000	0,664481
779,000000	0,663659
778,000000	0,662847
777,000000	0,662217
776,000000	0,661849
775,000000	0,661645
774,000000	0,661375
773,000000	0,660848
772,000000	0,660044
771,000000	0,659119
770,000000	0,658311
769,000000	0,657769
768,000000	0,657442
767,000000	0,657130
766,000000	0,656672
765,000000	0,656023
764,000000	0,655221
763,000000	0,654404
762,000000	0,653799
761,000000	0,653497
760,000000	0,653213
759,000000	0,652496
758,000000	0,651267
757,000000	0,649968
756,000000	0,649088
755,000000	0,648717
754,000000	0,648605
753,000000	0,648423
752,000000	0,647886
751,000000	0,646875
750,000000	0,645600
749,000000	0,644433
748,000000	0,643476
747,000000	0,642486
746,000000	0,641294
745,000000	0,640020
744,000000	0,638781
743,000000	0,637518
742,000000	0,636280
741,000000	0,635311
740,000000	0,634651
739,000000	0,633931
738,000000	0,632800
737,000000	0,631323
736,000000	0,629800
735,000000	0,628454
734,000000	0,627413
733,000000	0,626645
732,000000	0,625782
731,000000	0,624429
730,000000	0,622740
729,000000	0,621263
728,000000	0,620154
727,000000	0,619106
726,000000	0,618054
725,000000	0,616995
724,000000	0,614911
723,000000	0,610177
722,000000	0,603044
721,000000	0,596754
720,000000	0,594888
719,000000	0,597748
718,000000	0,602277
717,000000	0,605300
716,000000	0,605868
715,000000	0,604791
714,000000	0,603084
713,000000	0,601277
712,000000	0,599467
711,000000	0,597528
710,000000	0,595388
709,000000	0,593129
708,000000	0,590711
707,000000	0,587903
706,000000	0,584750
705,000000	0,581744
704,000000	0,579146
703,000000	0,576525
702,000000	0,573331
701,000000	0,569529
700,000000	0,565297
699,000000	0,560617
698,000000	0,555585
697,000000	0,550575
696,000000	0,545650
695,000000	0,540348
694,000000	0,534432
693,000000	0,528153
692,000000	0,521427
691,000000	0,513769
690,000000	0,505622
689,000000	0,498688
688,000000	0,494132
687,000000	0,491393
686,000000	0,489458
685,000000	0,488128
684,000000	0,487175
683,000000	0,485709
682,000000	0,483481
681,000000	0,481571
680,000000	0,480637
679,000000	0,479985
678,000000	0,479336
677,000000	0,479711
676,000000	0,481382
675,000000	0,483225
674,000000	0,484475
673,000000	0,482489
672,000000	0,466963
671,000000	0,424655
670,000000	0,359385
669,000000	0,303236
668,000000	0,295248
667,000000	0,343442
666,000000	0,414994
665,000000	0,468384
664,000000	0,488271
663,000000	0,486886
662,000000	0,480394
661,000000	0,474302
660,000000	0,468390
659,000000	0,463606
658,000000	0,460826
657,000000	0,458721
656,000000	0,456250
655,000000	0,454267
654,000000	0,453223
653,000000	0,451822
652,000000	0,449267
651,000000	0,446637
650,000000	0,445159
649,000000	0,444979
648,000000	0,446157
647,000000	0,448914
646,000000	0,452341
645,000000	0,454732
644,000000	0,455703
643,000000	0,456431
642,000000	0,457452
641,000000	0,457981
640,000000	0,457625
639,000000	0,457031
638,000000	0,456422
637,000000	0,455246
636,000000	0,453759
635,000000	0,453215
634,000000	0,453884
633,000000	0,454420
632,000000	0,453880
631,000000	0,452842
630,000000	0,451868
629,000000	0,450290
628,000000	0,447494
627,000000	0,444209
626,000000	0,441585
625,000000	0,439858
624,000000	0,438660
623,000000	0,437718
622,000000	0,436370
621,000000	0,433260
620,000000	0,427601
619,000000	0,420585
618,000000	0,414790
617,000000	0,412167
616,000000	0,412660
615,000000	0,414406
614,000000	0,415164
613,000000	0,413915
612,000000	0,411312
611,000000	0,408510
610,000000	0,405783
609,000000	0,402683
608,000000	0,399157
607,000000	0,395759
606,000000	0,392888
605,000000	0,390477
604,000000	0,388363
603,000000	0,386344
602,000000	0,384064
601,000000	0,381495
600,000000	0,379335
599,000000	0,378171
598,000000	0,377484
597,000000	0,376143
596,000000	0,373674
595,000000	0,370282
594,000000	0,366113
593,000000	0,361577
592,000000	0,358048
591,000000	0,356855
590,000000	0,357418
589,000000	0,357567
588,000000	0,355871
587,000000	0,352824
586,000000	0,349547
585,000000	0,346353
584,000000	0,342989
583,000000	0,339429
582,000000	0,336009
581,000000	0,333111
580,000000	0,330805
579,000000	0,328466
578,000000	0,325119
577,000000	0,320833
576,000000	0,317275
575,000000	0,315859
574,000000	0,315746
573,000000	0,314717
572,000000	0,311873
571,000000	0,308197
570,000000	0,304700
569,000000	0,301512
568,000000	0,298824
567,000000	0,297186
566,000000	0,296349
565,000000	0,295123
564,000000	0,292912
563,000000	0,290429
562,000000	0,288403
561,000000	0,286639
560,000000	0,284772
559,000000	0,282900
558,000000	0,280965
557,000000	0,278481
556,000000	0,275440
555,000000	0,272582
554,000000	0,270250
553,000000	0,267844
552,000000	0,264951
551,000000	0,262072
550,000000	0,259642
549,000000	0,257225
548,000000	0,254435
547,000000	0,251904
546,000000	0,250499
545,000000	0,250130
544,000000	0,249976
543,000000	0,249491
542,000000	0,248555
541,000000	0,247120
540,000000	0,245240
539,000000	0,243161
538,000000	0,241025
537,000000	0,238852
536,000000	0,236980
535,000000	0,235894
534,000000	0,235348
533,000000	0,234408
532,000000	0,232665
531,000000	0,230576
530,000000	0,228194
529,000000	0,224545
528,000000	0,219209
527,000000	0,213775
526,000000	0,210663
525,000000	0,210586
524,000000	0,211865
523,000000	0,212092
522,000000	0,209869
521,000000	0,205326
520,000000	0,199732
519,000000	0,194815
518,000000	0,191973
517,000000	0,191732
516,000000	0,193636
515,000000	0,196422
514,000000	0,198521
513,000000	0,199018
512,000000	0,198290
511,000000	0,197250
510,000000	0,195998
509,000000	0,194021
508,000000	0,191656
507,000000	0,190167
506,000000	0,189774
505,000000	0,188846
504,000000	0,186139
503,000000	0,183006
502,000000	0,182128
501,000000	0,184209
500,000000	0,187206
499,000000	0,188810
498,000000	0,188578
497,000000	0,187423
496,000000	0,185923
495,000000	0,183893
494,000000	0,181224
493,000000	0,178462
492,000000	0,176452
491,000000	0,175537
490,000000	0,175167
489,000000	0,174291
488,000000	0,172183
487,000000	0,168976
486,000000	0,165451
485,000000	0,162462
484,000000	0,160551
483,000000	0,159778
482,000000	0,159656
481,000000	0,159337
480,000000	0,158185
479,000000	0,156244
478,000000	0,154009
477,000000	0,151614
476,000000	0,148372
475,000000	0,143471
474,000000	0,137390
473,000000	0,132397
472,000000	0,130825
471,000000	0,132646
470,000000	0,135318
469,000000	0,136464
468,000000	0,136261
467,000000	0,136356
466,000000	0,137131
465,000000	0,137282
464,000000	0,136009
463,000000	0,134130
462,000000	0,132313
461,000000	0,129488
460,000000	0,124354
459,000000	0,118128
458,000000	0,114338
457,000000	0,115325
456,000000	0,119649
455,000000	0,123491
454,000000	0,124473
453,000000	0,123523
452,000000	0,122937
451,000000	0,123416
450,000000	0,123611
449,000000	0,122330
448,000000	0,120084
447,000000	0,118029
446,000000	0,116248
445,000000	0,113953
444,000000	0,111110
443,000000	0,108874
442,000000	0,108280
441,000000	0,109054
440,000000	0,109802
439,000000	0,109109
438,000000	0,106549
437,000000	0,103124
436,000000	0,100554
435,000000	0,099646
434,000000	0,099485
433,000000	0,098627
432,000000	0,096778
431,000000	0,094738
430,000000	0,093038
429,000000	0,091430
428,000000	0,089534
427,000000	0,087151
426,000000	0,084096
425,000000	0,080467
424,000000	0,076878
423,000000	0,073424
422,000000	0,068770
421,000000	0,061756
420,000000	0,054118
419,000000	0,049953
418,000000	0,051610
417,000000	0,057125
416,000000	0,062409
415,000000	0,065026
414,000000	0,065089
413,000000	0,063644
412,000000	0,061559
411,000000	0,059501
410,000000	0,057802
409,000000	0,056245
408,000000	0,054577
407,000000	0,053022
406,000000	0,051807
405,000000	0,050527
404,000000	0,048536
403,000000	0,045688
402,000000	0,042125
401,000000	0,037792
400,000000	0,032850
399,000000	0,028316
398,000000	0,025510
397,000000	0,024844
396,000000	0,025603
395,000000	0,026817
394,000000	0,027892
393,000000	0,028535
392,000000	0,028654
391,000000	0,028371
390,000000	0,027766
389,000000	0,026615
388,000000	0,024666
387,000000	0,022121
386,000000	0,019647
385,000000	0,017971
384,000000	0,017484
383,000000	0,018003
382,000000	0,018767
381,000000	0,018879
380,000000	0,017976
379,000000	0,016306
378,000000	0,014198
377,000000	0,011953
376,000000	0,010148
375,000000	0,009434
374,000000	0,009764
373,000000	0,010235
372,000000	0,010079
371,000000	0,009509
370,000000	0,009170
369,000000	0,009196
368,000000	0,009238
367,000000	0,009064
366,000000	0,008654
365,000000	0,007960
364,000000	0,006960
363,000000	0,005857
362,000000	0,004937
361,000000	0,004302
360,000000	0,003986
359,000000	0,004004
358,000000	0,004063
357,000000	0,003691
356,000000	0,002905
355,000000	0,002383
354,000000	0,002427
353,000000	0,002459
352,000000	0,002226
351,000000	0,002025
350,000000	0,001961
349,000000	0,001785
348,000000	0,001565
347,000000	0,001583
346,000000	0,001848
345,000000	0,001845
344,000000	0,001344
343,000000	0,000878
342,000000	0,000911
341,000000	0,001159
340,000000	0,001236
339,000000	0,001171
338,000000	0,001169
337,000000	0,001087
336,000000	0,000934
335,000000	0,001024
334,000000	0,001126
333,000000	0,001090
332,000000	0,000947
331,000000	0,000625
330,000000	0,000087
329,000000	0,001000
328,000000	0,001579
327,000000	0,001507
326,000000	0,000838
325,000000	0,000510
324,000000	0,000825
323,000000	0,001019
322,000000	0,001018
321,000000	0,000776
320,000000	0,000115
319,000000	0,000538
318,000000	0,000771
317,000000	0,000729
316,000000	0,000474
315,000000	0,000267
314,000000	0,000324
313,000000	0,000243
312,000000	0,000417
311,000000	0,000527
310,000000	0,000479
309,000000	0,000526
308,000000	0,000762
307,000000	0,000967
306,000000	0,000899
305,000000	0,000569
304,000000	0,000214
303,000000	0,000134
302,000000	0,000219
301,000000	0,000389
300,000000	0,000752
