PE IR       SUBTECH     SPECTRUM    ASCII       PEDS        4.00        
   -1
REF REFERENCE GOLD PLATE.ASC
25/06/17
10:40:54.00
25/06/17
10:40:54.00
Praktikum
Sample 025 By Praktikum date Dienstag, Juni 17 2025
300,000000
#HDR
-1
-1
#GR
cm-1
EGY
1.0
0.0
4000,000000
-1,000000
3701
8
12,946125
0,000189
#DATA
4000,000000	8,781905
3999,000000	8,777505
3998,000000	8,766555
3997,000000	8,753322
3996,000000	8,743655
3995,000000	8,740056
3994,000000	8,739994
3993,000000	8,740246
3992,000000	8,741997
3991,000000	8,750188
3990,000000	8,767303
3989,000000	8,789172
3988,000000	8,807658
3987,000000	8,816861
3986,000000	8,816401
3985,000000	8,810215
3984,000000	8,803826
3983,000000	8,802048
3982,000000	8,806636
3981,000000	8,814216
3980,000000	8,817252
3979,000000	8,808721
3978,000000	8,787730
3977,000000	8,761177
3976,000000	8,739624
3975,000000	8,730914
3974,000000	8,735955
3973,000000	8,749701
3972,000000	8,766140
3971,000000	8,782874
3970,000000	8,801626
3969,000000	8,824092
3968,000000	8,846533
3967,000000	8,858670
3966,000000	8,849855
3965,000000	8,818802
3964,000000	8,778355
3963,000000	8,748645
3962,000000	8,742739
3961,000000	8,757851
3960,000000	8,780407
3959,000000	8,798738
3958,000000	8,810334
3957,000000	8,817486
3956,000000	8,818310
3955,000000	8,803334
3954,000000	8,760187
3953,000000	8,682828
3952,000000	8,580732
3951,000000	8,482507
3950,000000	8,425503
3949,000000	8,431031
3948,000000	8,481080
3947,000000	8,522771
3946,000000	8,510234
3945,000000	8,449150
3944,000000	8,398915
3943,000000	8,422830
3942,000000	8,531617
3941,000000	8,678298
3940,000000	8,803507
3939,000000	8,875313
3938,000000	8,886288
3937,000000	8,829194
3936,000000	8,696177
3935,000000	8,506162
3934,000000	8,318444
3933,000000	8,207337
3932,000000	8,215016
3931,000000	8,323239
3930,000000	8,462226
3929,000000	8,548841
3928,000000	8,537875
3927,000000	8,453236
3926,000000	8,367897
3925,000000	8,343481
3924,000000	8,377503
3923,000000	8,410359
3922,000000	8,381695
3921,000000	8,280298
3920,000000	8,151122
3919,000000	8,066360
3918,000000	8,088928
3917,000000	8,239021
3916,000000	8,478706
3915,000000	8,730505
3914,000000	8,923462
3913,000000	9,033219
3912,000000	9,075303
3911,000000	9,061372
3910,000000	8,966067
3909,000000	8,740294
3908,000000	8,359839
3907,000000	7,866904
3906,000000	7,366933
3905,000000	6,975448
3904,000000	6,754295
3903,000000	6,694262
3902,000000	6,758595
3901,000000	6,935514
3900,000000	7,240054
3899,000000	7,657862
3898,000000	8,101638
3897,000000	8,431514
3896,000000	8,529768
3895,000000	8,375522
3894,000000	8,073361
3893,000000	7,810661
3892,000000	7,743290
3891,000000	7,872055
3890,000000	8,024108
3889,000000	8,004052
3888,000000	7,780022
3887,000000	7,518496
3886,000000	7,410422
3885,000000	7,477728
3884,000000	7,574798
3883,000000	7,574989
3882,000000	7,523082
3881,000000	7,579897
3880,000000	7,824843
3879,000000	8,143723
3878,000000	8,325456
3877,000000	8,258717
3876,000000	8,015743
3875,000000	7,737778
3874,000000	7,481356
3873,000000	7,212526
3872,000000	6,940142
3871,000000	6,782525
3870,000000	6,848793
3869,000000	7,084227
3868,000000	7,295323
3867,000000	7,340611
3866,000000	7,263681
3865,000000	7,227552
3864,000000	7,348235
3863,000000	7,616687
3862,000000	7,937910
3861,000000	8,198083
3860,000000	8,286312
3859,000000	8,101556
3858,000000	7,587362
3857,000000	6,791569
3856,000000	5,908304
3855,000000	5,241486
3854,000000	5,066584
3853,000000	5,466890
3852,000000	6,281254
3851,000000	7,210985
3850,000000	7,994350
3849,000000	8,497696
3848,000000	8,697272
3847,000000	8,631274
3846,000000	8,383104
3845,000000	8,058674
3844,000000	7,734166
3843,000000	7,418592
3842,000000	7,082698
3841,000000	6,729712
3840,000000	6,432907
3839,000000	6,297382
3838,000000	6,383620
3837,000000	6,656124
3836,000000	7,001305
3835,000000	7,305629
3834,000000	7,532170
3833,000000	7,725395
3832,000000	7,937177
3831,000000	8,153779
3830,000000	8,305587
3829,000000	8,351352
3828,000000	8,326521
3827,000000	8,279995
3826,000000	8,173114
3825,000000	7,891253
3824,000000	7,398572
3823,000000	6,861630
3822,000000	6,550359
3821,000000	6,587999
3820,000000	6,822760
3819,000000	6,998913
3818,000000	7,033968
3817,000000	7,092474
3816,000000	7,381768
3815,000000	7,918884
3814,000000	8,518694
3813,000000	8,954530
3812,000000	9,093802
3811,000000	8,915194
3810,000000	8,496022
3809,000000	8,012105
3808,000000	7,676691
3807,000000	7,584426
3806,000000	7,605492
3805,000000	7,501788
3804,000000	7,186385
3803,000000	6,843470
3802,000000	6,750648
3801,000000	6,995140
3800,000000	7,405470
3799,000000	7,753312
3798,000000	7,979404
3797,000000	8,191282
3796,000000	8,491341
3795,000000	8,855525
3794,000000	9,177852
3793,000000	9,383871
3792,000000	9,477190
3791,000000	9,499906
3790,000000	9,477031
3789,000000	9,405077
3788,000000	9,282716
3787,000000	9,144748
3786,000000	9,049609
3785,000000	9,023137
3784,000000	9,014116
3783,000000	8,932844
3782,000000	8,752758
3781,000000	8,565731
3780,000000	8,516273
3779,000000	8,671655
3778,000000	8,964816
3777,000000	9,256914
3776,000000	9,433762
3775,000000	9,439445
3774,000000	9,257666
3773,000000	8,917256
3772,000000	8,523910
3771,000000	8,232604
3770,000000	8,137248
3769,000000	8,196900
3768,000000	8,301404
3767,000000	8,401845
3766,000000	8,532210
3765,000000	8,700454
3764,000000	8,810845
3763,000000	8,743553
3762,000000	8,491529
3761,000000	8,187131
3760,000000	7,992021
3759,000000	7,972733
3758,000000	8,060567
3757,000000	8,094817
3756,000000	7,910620
3755,000000	7,440841
3754,000000	6,773309
3753,000000	6,116108
3752,000000	5,690924
3751,000000	5,615584
3750,000000	5,829372
3749,000000	6,103113
3748,000000	6,177724
3747,000000	5,978473
3746,000000	5,714866
3745,000000	5,719282
3744,000000	6,140957
3743,000000	6,810461
3742,000000	7,393001
3741,000000	7,637174
3740,000000	7,487401
3739,000000	7,042765
3738,000000	6,485238
3737,000000	6,020824
3736,000000	5,800894
3735,000000	5,862182
3734,000000	6,153645
3733,000000	6,607529
3732,000000	7,148615
3731,000000	7,653239
3730,000000	7,969971
3729,000000	8,030277
3728,000000	7,913080
3727,000000	7,769964
3726,000000	7,698606
3725,000000	7,704525
3724,000000	7,763925
3723,000000	7,877846
3722,000000	8,057723
3721,000000	8,292453
3720,000000	8,548271
3719,000000	8,783762
3718,000000	8,940182
3717,000000	8,927009
3716,000000	8,658330
3715,000000	8,137785
3714,000000	7,508214
3713,000000	6,996624
3712,000000	6,790473
3711,000000	6,941517
3710,000000	7,368055
3709,000000	7,918769
3708,000000	8,434054
3707,000000	8,783734
3706,000000	8,891542
3705,000000	8,769931
3704,000000	8,533034
3703,000000	8,353652
3702,000000	8,365876
3701,000000	8,574269
3700,000000	8,860901
3699,000000	9,088967
3698,000000	9,200227
3697,000000	9,208196
3696,000000	9,116716
3695,000000	8,881908
3694,000000	8,465175
3693,000000	7,901512
3692,000000	7,309712
3691,000000	6,857005
3690,000000	6,704429
3689,000000	6,938487
3688,000000	7,503414
3687,000000	8,205164
3686,000000	8,820434
3685,000000	9,213980
3684,000000	9,364264
3683,000000	9,310752
3682,000000	9,101031
3681,000000	8,760418
3680,000000	8,275292
3679,000000	7,626707
3678,000000	6,898219
3677,000000	6,328736
3676,000000	6,170059
3675,000000	6,431177
3674,000000	6,818857
3673,000000	7,002889
3672,000000	6,933877
3671,000000	6,872682
3670,000000	7,110082
3669,000000	7,696173
3668,000000	8,437112
3667,000000	9,088733
3666,000000	9,520437
3665,000000	9,738080
3664,000000	9,814386
3663,000000	9,818763
3662,000000	9,771999
3661,000000	9,636198
3660,000000	9,359390
3659,000000	8,960760
3658,000000	8,577887
3657,000000	8,382276
3656,000000	8,404023
3655,000000	8,449224
3654,000000	8,234881
3653,000000	7,645594
3652,000000	6,848168
3651,000000	6,166245
3650,000000	5,863026
3649,000000	6,025635
3648,000000	6,587916
3647,000000	7,384538
3646,000000	8,197313
3645,000000	8,833646
3644,000000	9,217531
3643,000000	9,399099
3642,000000	9,473806
3641,000000	9,502780
3640,000000	9,504198
3639,000000	9,478489
3638,000000	9,412947
3637,000000	9,289761
3636,000000	9,114671
3635,000000	8,911421
3634,000000	8,654795
3633,000000	8,246620
3632,000000	7,629825
3631,000000	6,945822
3630,000000	6,510804
3629,000000	6,582343
3628,000000	7,139922
3627,000000	7,908387
3626,000000	8,569025
3625,000000	8,934060
3624,000000	8,959774
3623,000000	8,692177
3622,000000	8,248007
3621,000000	7,811531
3620,000000	7,570256
3619,000000	7,603684
3618,000000	7,823983
3617,000000	8,046062
3616,000000	8,136818
3615,000000	8,104664
3614,000000	8,048102
3613,000000	8,030866
3612,000000	8,026061
3611,000000	7,985662
3610,000000	7,939874
3609,000000	7,995079
3608,000000	8,226748
3607,000000	8,592502
3606,000000	8,954040
3605,000000	9,178236
3604,000000	9,218631
3603,000000	9,125261
3602,000000	8,996513
3601,000000	8,911007
3600,000000	8,880603
3599,000000	8,859210
3598,000000	8,801048
3597,000000	8,714894
3596,000000	8,664193
3595,000000	8,710044
3594,000000	8,844087
3593,000000	8,965476
3592,000000	8,933208
3591,000000	8,671914
3590,000000	8,260325
3589,000000	7,909712
3588,000000	7,827438
3587,000000	8,073090
3586,000000	8,531347
3585,000000	9,010780
3584,000000	9,368153
3583,000000	9,564668
3582,000000	9,640975
3581,000000	9,660409
3580,000000	9,667453
3579,000000	9,678091
3578,000000	9,691985
3577,000000	9,708779
3576,000000	9,733556
3575,000000	9,766734
3574,000000	9,786529
3573,000000	9,737265
3572,000000	9,542404
3571,000000	9,155996
3570,000000	8,629680
3569,000000	8,129972
3568,000000	7,858003
3567,000000	7,921849
3566,000000	8,265546
3565,000000	8,718836
3564,000000	9,115063
3563,000000	9,380361
3562,000000	9,535379
3561,000000	9,639564
3560,000000	9,735517
3559,000000	9,828513
3558,000000	9,895225
3557,000000	9,903361
3556,000000	9,835967
3555,000000	9,713539
3554,000000	9,595213
3553,000000	9,542658
3552,000000	9,565469
3551,000000	9,603183
3550,000000	9,573387
3549,000000	9,448385
3548,000000	9,284289
3547,000000	9,177764
3546,000000	9,195103
3545,000000	9,335785
3544,000000	9,546634
3543,000000	9,759270
3542,000000	9,920393
3541,000000	10,003735
3540,000000	10,010210
3539,000000	9,964653
3538,000000	9,909616
3537,000000	9,887593
3536,000000	9,914050
3535,000000	9,963914
3534,000000	9,989014
3533,000000	9,954014
3532,000000	9,857701
3531,000000	9,727629
3530,000000	9,602051
3529,000000	9,513542
3528,000000	9,474475
3527,000000	9,471500
3526,000000	9,482460
3525,000000	9,503912
3524,000000	9,555790
3523,000000	9,652025
3522,000000	9,774401
3521,000000	9,884740
3520,000000	9,960092
3519,000000	10,005884
3518,000000	10,037859
3517,000000	10,061627
3516,000000	10,071654
3515,000000	10,059509
3514,000000	10,017897
3513,000000	9,945334
3512,000000	9,857141
3511,000000	9,788477
3510,000000	9,772863
3509,000000	9,809104
3508,000000	9,851432
3507,000000	9,842900
3506,000000	9,765991
3505,000000	9,662986
3504,000000	9,604317
3503,000000	9,633011
3502,000000	9,734703
3501,000000	9,854076
3500,000000	9,938445
3499,000000	9,969377
3498,000000	9,964951
3497,000000	9,958402
3496,000000	9,972551
3495,000000	10,007249
3494,000000	10,044724
3493,000000	10,065127
3492,000000	10,058293
3491,000000	10,027215
3490,000000	9,986503
3489,000000	9,956852
3488,000000	9,951785
3487,000000	9,963606
3486,000000	9,966078
3485,000000	9,938276
3484,000000	9,887775
3483,000000	9,848096
3482,000000	9,850966
3481,000000	9,900979
3480,000000	9,973537
3479,000000	10,034271
3478,000000	10,062701
3477,000000	10,062638
3476,000000	10,054156
3475,000000	10,055251
3474,000000	10,069670
3473,000000	10,089081
3472,000000	10,102942
3471,000000	10,105361
3470,000000	10,096632
3469,000000	10,082782
3468,000000	10,072072
3467,000000	10,067730
3466,000000	10,064296
3465,000000	10,054451
3464,000000	10,039953
3463,000000	10,032617
3462,000000	10,042777
3461,000000	10,068874
3460,000000	10,099403
3459,000000	10,123593
3458,000000	10,138753
3457,000000	10,148683
3456,000000	10,157708
3455,000000	10,167097
3454,000000	10,175289
3453,000000	10,176816
3452,000000	10,159390
3451,000000	10,107735
3450,000000	10,020153
3449,000000	9,923571
3448,000000	9,863136
3447,000000	9,866627
3446,000000	9,919553
3445,000000	9,981773
3444,000000	10,026645
3443,000000	10,058192
3442,000000	10,091984
3441,000000	10,130775
3440,000000	10,164703
3439,000000	10,187068
3438,000000	10,200553
3437,000000	10,209871
3436,000000	10,215759
3435,000000	10,217301
3434,000000	10,215683
3433,000000	10,213996
3432,000000	10,215329
3431,000000	10,221745
3430,000000	10,233174
3429,000000	10,246980
3428,000000	10,259546
3427,000000	10,267215
3426,000000	10,264562
3425,000000	10,244615
3424,000000	10,205897
3423,000000	10,160602
3422,000000	10,131583
3421,000000	10,137261
3420,000000	10,177944
3419,000000	10,236225
3418,000000	10,289794
3417,000000	10,325024
3416,000000	10,341678
3415,000000	10,348052
3414,000000	10,352357
3413,000000	10,357640
3412,000000	10,363090
3411,000000	10,367810
3410,000000	10,372001
3409,000000	10,375617
3408,000000	10,377830
3407,000000	10,377810
3406,000000	10,375411
3405,000000	10,371694
3404,000000	10,369378
3403,000000	10,371121
3402,000000	10,375404
3401,000000	10,375982
3400,000000	10,368648
3399,000000	10,357885
3398,000000	10,352718
3397,000000	10,355257
3396,000000	10,357792
3395,000000	10,354063
3394,000000	10,350010
3393,000000	10,358925
3392,000000	10,386467
3391,000000	10,423527
3390,000000	10,453964
3389,000000	10,467125
3388,000000	10,463409
3387,000000	10,451712
3386,000000	10,443436
3385,000000	10,446536
3384,000000	10,461613
3383,000000	10,482517
3382,000000	10,501419
3381,000000	10,514194
3380,000000	10,521695
3379,000000	10,526901
3378,000000	10,531802
3377,000000	10,536798
3376,000000	10,541833
3375,000000	10,546914
3374,000000	10,551356
3373,000000	10,553242
3372,000000	10,550229
3371,000000	10,540911
3370,000000	10,525765
3369,000000	10,507531
3368,000000	10,491153
3367,000000	10,482141
3366,000000	10,483174
3365,000000	10,491920
3364,000000	10,503388
3363,000000	10,514560
3362,000000	10,525777
3361,000000	10,537473
3360,000000	10,547309
3359,000000	10,552221
3358,000000	10,552757
3357,000000	10,553769
3356,000000	10,560288
3355,000000	10,573165
3354,000000	10,588781
3353,000000	10,602462
3352,000000	10,611953
3351,000000	10,618035
3350,000000	10,622554
3349,000000	10,626495
3348,000000	10,629948
3347,000000	10,633013
3346,000000	10,635798
3345,000000	10,637923
3344,000000	10,639003
3343,000000	10,639355
3342,000000	10,638997
3341,000000	10,635899
3340,000000	10,627134
3339,000000	10,613050
3338,000000	10,599460
3337,000000	10,594284
3336,000000	10,601638
3335,000000	10,619099
3334,000000	10,639932
3333,000000	10,657347
3332,000000	10,667483
3331,000000	10,670073
3330,000000	10,667333
3329,000000	10,662390
3328,000000	10,658311
3327,000000	10,657588
3326,000000	10,661421
3325,000000	10,669260
3324,000000	10,679469
3323,000000	10,690389
3322,000000	10,700469
3321,000000	10,708106
3320,000000	10,712512
3319,000000	10,714463
3318,000000	10,714806
3317,000000	10,712569
3316,000000	10,706293
3315,000000	10,697249
3314,000000	10,689118
3313,000000	10,683682
3312,000000	10,679193
3311,000000	10,674755
3310,000000	10,674396
3309,000000	10,683775
3308,000000	10,703298
3307,000000	10,726502
3306,000000	10,745580
3305,000000	10,757311
3304,000000	10,763418
3303,000000	10,766725
3302,000000	10,768056
3301,000000	10,766631
3300,000000	10,762806
3299,000000	10,759588
3298,000000	10,760127
3297,000000	10,763519
3296,000000	10,764693
3295,000000	10,759836
3294,000000	10,751203
3293,000000	10,745330
3292,000000	10,746921
3291,000000	10,755575
3290,000000	10,767918
3289,000000	10,780728
3288,000000	10,791632
3287,000000	10,798706
3286,000000	10,801146
3285,000000	10,800293
3284,000000	10,799032
3283,000000	10,799545
3282,000000	10,801393
3281,000000	10,801655
3280,000000	10,797000
3279,000000	10,786170
3278,000000	10,770965
3277,000000	10,755623
3276,000000	10,745548
3275,000000	10,745638
3274,000000	10,757899
3273,000000	10,779697
3272,000000	10,804861
3271,000000	10,827077
3270,000000	10,842597
3269,000000	10,850541
3268,000000	10,852209
3267,000000	10,850617
3266,000000	10,849313
3265,000000	10,850247
3264,000000	10,852805
3263,000000	10,855273
3262,000000	10,856731
3261,000000	10,857270
3260,000000	10,856890
3259,000000	10,854860
3258,000000	10,850194
3257,000000	10,843269
3256,000000	10,837501
3255,000000	10,838613
3254,000000	10,850286
3253,000000	10,870000
3252,000000	10,890485
3251,000000	10,905138
3250,000000	10,910568
3249,000000	10,905057
3248,000000	10,888817
3247,000000	10,867914
3246,000000	10,854249
3245,000000	10,857201
3244,000000	10,875049
3243,000000	10,897011
3242,000000	10,913441
3241,000000	10,921905
3240,000000	10,924938
3239,000000	10,925573
3238,000000	10,926032
3237,000000	10,927930
3236,000000	10,931316
3235,000000	10,934477
3234,000000	10,935913
3233,000000	10,935992
3232,000000	10,936021
3231,000000	10,936772
3230,000000	10,938842
3229,000000	10,943673
3228,000000	10,952729
3227,000000	10,965452
3226,000000	10,978519
3225,000000	10,987273
3224,000000	10,987950
3223,000000	10,979825
3222,000000	10,966794
3221,000000	10,956633
3220,000000	10,956256
3219,000000	10,965459
3218,000000	10,975976
3217,000000	10,979260
3216,000000	10,975489
3215,000000	10,973040
3214,000000	10,978212
3213,000000	10,988045
3212,000000	10,995716
3211,000000	11,000486
3210,000000	11,008605
3209,000000	11,024342
3208,000000	11,044216
3207,000000	11,061231
3206,000000	11,072104
3205,000000	11,078237
3204,000000	11,081502
3203,000000	11,081399
3202,000000	11,075797
3201,000000	11,063545
3200,000000	11,047321
3199,000000	11,034547
3198,000000	11,033546
3197,000000	11,046917
3196,000000	11,068921
3195,000000	11,090424
3194,000000	11,105877
3193,000000	11,115135
3192,000000	11,120608
3191,000000	11,124144
3190,000000	11,125894
3189,000000	11,124507
3188,000000	11,118950
3187,000000	11,111325
3186,000000	11,107098
3185,000000	11,110881
3184,000000	11,121447
3183,000000	11,131566
3182,000000	11,132997
3181,000000	11,123008
3180,000000	11,107518
3179,000000	11,098254
3178,000000	11,104244
3177,000000	11,124235
3176,000000	11,148090
3175,000000	11,166022
3174,000000	11,175660
3173,000000	11,180120
3172,000000	11,182427
3171,000000	11,183779
3170,000000	11,185295
3169,000000	11,188237
3168,000000	11,192643
3167,000000	11,197663
3166,000000	11,202972
3165,000000	11,208582
3164,000000	11,213801
3163,000000	11,217863
3162,000000	11,221181
3161,000000	11,224665
3160,000000	11,228329
3159,000000	11,231755
3158,000000	11,235283
3157,000000	11,239337
3156,000000	11,243149
3155,000000	11,245663
3154,000000	11,247320
3153,000000	11,249662
3152,000000	11,253430
3151,000000	11,258246
3150,000000	11,263661
3149,000000	11,269280
3148,000000	11,274159
3147,000000	11,277422
3146,000000	11,279385
3145,000000	11,281183
3144,000000	11,283562
3143,000000	11,286802
3142,000000	11,291274
3141,000000	11,297053
3140,000000	11,303248
3139,000000	11,308241
3138,000000	11,309800
3137,000000	11,304953
3136,000000	11,292090
3135,000000	11,275397
3134,000000	11,265273
3133,000000	11,270584
3132,000000	11,289477
3131,000000	11,310014
3130,000000	11,320757
3129,000000	11,319869
3128,000000	11,313426
3127,000000	11,307113
3126,000000	11,301469
3125,000000	11,294820
3124,000000	11,288407
3123,000000	11,286506
3122,000000	11,291160
3121,000000	11,298447
3120,000000	11,301832
3119,000000	11,299251
3118,000000	11,295423
3117,000000	11,297066
3116,000000	11,307066
3115,000000	11,323644
3114,000000	11,342707
3113,000000	11,359854
3112,000000	11,371705
3111,000000	11,377840
3110,000000	11,381137
3109,000000	11,385026
3108,000000	11,390293
3107,000000	11,394691
3106,000000	11,394629
3105,000000	11,386988
3104,000000	11,371901
3103,000000	11,355344
3102,000000	11,346997
3101,000000	11,351977
3100,000000	11,365000
3099,000000	11,375140
3098,000000	11,377207
3097,000000	11,376808
3096,000000	11,383809
3095,000000	11,402443
3094,000000	11,427992
3093,000000	11,451727
3092,000000	11,467597
3091,000000	11,475063
3090,000000	11,477087
3089,000000	11,476850
3088,000000	11,476305
3087,000000	11,476300
3086,000000	11,476298
3085,000000	11,473801
3084,000000	11,466183
3083,000000	11,454123
3082,000000	11,442433
3081,000000	11,436754
3080,000000	11,440080
3079,000000	11,452315
3078,000000	11,471066
3077,000000	11,491763
3076,000000	11,508882
3075,000000	11,519447
3074,000000	11,524687
3073,000000	11,527103
3072,000000	11,526444
3071,000000	11,519887
3070,000000	11,505490
3069,000000	11,484619
3068,000000	11,462140
3067,000000	11,445428
3066,000000	11,441515
3065,000000	11,452623
3064,000000	11,473995
3063,000000	11,497092
3062,000000	11,514675
3061,000000	11,522739
3060,000000	11,520135
3059,000000	11,509760
3058,000000	11,499506
3057,000000	11,498694
3056,000000	11,511328
3055,000000	11,532872
3054,000000	11,553596
3053,000000	11,564996
3052,000000	11,564433
3051,000000	11,556505
3050,000000	11,550223
3049,000000	11,552939
3048,000000	11,565238
3047,000000	11,581533
3046,000000	11,595468
3045,000000	11,604290
3044,000000	11,608843
3043,000000	11,611172
3042,000000	11,612869
3041,000000	11,614356
3040,000000	11,614615
3039,000000	11,611646
3038,000000	11,603963
3037,000000	11,591444
3036,000000	11,574839
3035,000000	11,555244
3034,000000	11,535415
3033,000000	11,521533
3032,000000	11,521319
3031,000000	11,537768
3030,000000	11,564088
3029,000000	11,587062
3028,000000	11,597418
3027,000000	11,596440
3026,000000	11,591917
3025,000000	11,589088
3024,000000	11,587631
3023,000000	11,585622
3022,000000	11,582573
3021,000000	11,577985
3020,000000	11,570486
3019,000000	11,560281
3018,000000	11,550595
3017,000000	11,544721
3016,000000	11,543103
3015,000000	11,544783
3014,000000	11,550559
3013,000000	11,562964
3012,000000	11,583568
3011,000000	11,611174
3010,000000	11,641531
3009,000000	11,668256
3008,000000	11,685657
3007,000000	11,692927
3006,000000	11,695245
3005,000000	11,699424
3004,000000	11,708512
3003,000000	11,720678
3002,000000	11,732355
3001,000000	11,741031
3000,000000	11,745945
2999,000000	11,747399
2998,000000	11,745924
2997,000000	11,742057
2996,000000	11,737246
2995,000000	11,734565
2994,000000	11,736755
2993,000000	11,742981
2992,000000	11,748858
2991,000000	11,750683
2990,000000	11,748886
2989,000000	11,746728
2988,000000	11,746783
2987,000000	11,749260
2986,000000	11,752476
2985,000000	11,753837
2984,000000	11,751304
2983,000000	11,744956
2982,000000	11,736805
2981,000000	11,728729
2980,000000	11,721197
2979,000000	11,713940
2978,000000	11,706400
2977,000000	11,697365
2976,000000	11,685747
2975,000000	11,672395
2974,000000	11,659545
2973,000000	11,647651
2972,000000	11,634275
2971,000000	11,616940
2970,000000	11,595790
2969,000000	11,572735
2968,000000	11,549565
2967,000000	11,527933
2966,000000	11,509480
2965,000000	11,494656
2964,000000	11,482355
2963,000000	11,471735
2962,000000	11,463264
2961,000000	11,457230
2960,000000	11,452654
2959,000000	11,448632
2958,000000	11,445552
2957,000000	11,443970
2956,000000	11,443590
2955,000000	11,444190
2954,000000	11,446091
2953,000000	11,448708
2952,000000	11,449970
2951,000000	11,448453
2950,000000	11,444806
2949,000000	11,440125
2948,000000	11,434138
2947,000000	11,426037
2946,000000	11,415740
2945,000000	11,403125
2944,000000	11,387342
2943,000000	11,368047
2942,000000	11,346323
2941,000000	11,323404
2940,000000	11,299614
2939,000000	11,275384
2938,000000	11,251870
2937,000000	11,229692
2936,000000	11,208422
2935,000000	11,188267
2934,000000	11,170629
2933,000000	11,155809
2932,000000	11,141769
2931,000000	11,126597
2930,000000	11,110991
2929,000000	11,097178
2928,000000	11,086769
2927,000000	11,081032
2926,000000	11,081668
2925,000000	11,089814
2924,000000	11,105035
2923,000000	11,126508
2922,000000	11,154043
2921,000000	11,186812
2920,000000	11,222573
2919,000000	11,259287
2918,000000	11,296504
2917,000000	11,333940
2916,000000	11,370144
2915,000000	11,403887
2914,000000	11,435561
2913,000000	11,465965
2912,000000	11,494760
2911,000000	11,521344
2910,000000	11,545970
2909,000000	11,568844
2908,000000	11,589385
2907,000000	11,607603
2906,000000	11,624973
2905,000000	11,642648
2904,000000	11,660049
2903,000000	11,676302
2902,000000	11,691714
2901,000000	11,706611
2900,000000	11,720128
2899,000000	11,731599
2898,000000	11,741947
2897,000000	11,752385
2896,000000	11,762923
2895,000000	11,773322
2894,000000	11,784165
2893,000000	11,795636
2892,000000	11,806486
2891,000000	11,815610
2890,000000	11,823500
2889,000000	11,830905
2888,000000	11,837328
2887,000000	11,842167
2886,000000	11,846058
2885,000000	11,849687
2884,000000	11,852381
2883,000000	11,853252
2882,000000	11,852627
2881,000000	11,851127
2880,000000	11,848411
2879,000000	11,844028
2878,000000	11,838355
2877,000000	11,831581
2876,000000	11,822952
2875,000000	11,812154
2874,000000	11,800148
2873,000000	11,787487
2872,000000	11,773129
2871,000000	11,756040
2870,000000	11,736607
2869,000000	11,715289
2868,000000	11,691468
2867,000000	11,665044
2866,000000	11,637922
2865,000000	11,612419
2864,000000	11,589534
2863,000000	11,569968
2862,000000	11,555445
2861,000000	11,547497
2860,000000	11,545942
2859,000000	11,549869
2858,000000	11,558950
2857,000000	11,572562
2856,000000	11,588997
2855,000000	11,606920
2854,000000	11,626556
2853,000000	11,648294
2852,000000	11,671487
2851,000000	11,695666
2850,000000	11,721573
2849,000000	11,749616
2848,000000	11,778656
2847,000000	11,807580
2846,000000	11,836664
2845,000000	11,866147
2844,000000	11,894901
2843,000000	11,921795
2842,000000	11,947034
2841,000000	11,970869
2840,000000	11,992492
2839,000000	12,011560
2838,000000	12,029257
2837,000000	12,046459
2836,000000	12,062269
2835,000000	12,075818
2834,000000	12,088030
2833,000000	12,100096
2832,000000	12,111629
2831,000000	12,121890
2830,000000	12,131485
2829,000000	12,141259
2828,000000	12,150748
2827,000000	12,159237
2826,000000	12,167203
2825,000000	12,175305
2824,000000	12,183141
2823,000000	12,190302
2822,000000	12,197374
2821,000000	12,204613
2820,000000	12,211007
2819,000000	12,215975
2818,000000	12,220603
2817,000000	12,225874
2816,000000	12,231068
2815,000000	12,235307
2814,000000	12,239228
2813,000000	12,243661
2812,000000	12,248052
2811,000000	12,251653
2810,000000	12,254963
2809,000000	12,258563
2808,000000	12,261852
2807,000000	12,264308
2806,000000	12,266643
2805,000000	12,269417
2804,000000	12,271887
2803,000000	12,273567
2802,000000	12,275420
2801,000000	12,278153
2800,000000	12,280859
2799,000000	12,282745
2798,000000	12,284660
2797,000000	12,287494
2796,000000	12,290578
2795,000000	12,293231
2794,000000	12,296313
2793,000000	12,300656
2792,000000	12,305455
2791,000000	12,309784
2790,000000	12,314329
2789,000000	12,320040
2788,000000	12,326405
2787,000000	12,332623
2786,000000	12,339073
2785,000000	12,346132
2784,000000	12,352960
2783,000000	12,358917
2782,000000	12,364825
2781,000000	12,371341
2780,000000	12,377508
2779,000000	12,382411
2778,000000	12,386813
2777,000000	12,391678
2776,000000	12,396511
2775,000000	12,400622
2774,000000	12,404558
2773,000000	12,408833
2772,000000	12,412684
2771,000000	12,415567
2770,000000	12,418343
2769,000000	12,421566
2768,000000	12,424239
2767,000000	12,425759
2766,000000	12,427423
2765,000000	12,430393
2764,000000	12,433760
2763,000000	12,436242
2762,000000	12,438223
2761,000000	12,440489
2760,000000	12,442576
2759,000000	12,444099
2758,000000	12,446115
2757,000000	12,449348
2756,000000	12,452558
2755,000000	12,454432
2754,000000	12,455688
2753,000000	12,457627
2752,000000	12,460021
2751,000000	12,462137
2750,000000	12,464386
2749,000000	12,467218
2748,000000	12,469797
2747,000000	12,471446
2746,000000	12,473080
2745,000000	12,475576
2744,000000	12,478128
2743,000000	12,479835
2742,000000	12,481458
2741,000000	12,483959
2740,000000	12,486726
2739,000000	12,488861
2738,000000	12,490832
2737,000000	12,493266
2736,000000	12,495591
2735,000000	12,497405
2734,000000	12,499656
2733,000000	12,502878
2732,000000	12,505829
2731,000000	12,507502
2730,000000	12,508935
2729,000000	12,511376
2728,000000	12,514241
2727,000000	12,516538
2726,000000	12,518720
2725,000000	12,521404
2724,000000	12,523883
2723,000000	12,525656
2722,000000	12,527887
2721,000000	12,531526
2720,000000	12,535515
2719,000000	12,538590
2718,000000	12,541341
2717,000000	12,544733
2716,000000	12,548131
2715,000000	12,550641
2714,000000	12,552891
2713,000000	12,555704
2712,000000	12,558407
2711,000000	12,560234
2710,000000	12,561951
2709,000000	12,564398
2708,000000	12,566891
2707,000000	12,568770
2706,000000	12,570977
2705,000000	12,574353
2704,000000	12,577941
2703,000000	12,580710
2702,000000	12,583456
2701,000000	12,587203
2700,000000	12,591254
2699,000000	12,594608
2698,000000	12,597834
2697,000000	12,601740
2696,000000	12,605681
2695,000000	12,608931
2694,000000	12,612247
2693,000000	12,616351
2692,000000	12,620365
2691,000000	12,623419
2690,000000	12,626282
2689,000000	12,629700
2688,000000	12,632774
2687,000000	12,634696
2686,000000	12,636427
2685,000000	12,638906
2684,000000	12,641250
2683,000000	12,642554
2682,000000	12,643747
2681,000000	12,645844
2680,000000	12,648030
2679,000000	12,649366
2678,000000	12,650688
2677,000000	12,652882
2676,000000	12,654956
2675,000000	12,655832
2674,000000	12,656466
2673,000000	12,658161
2672,000000	12,660299
2671,000000	12,661720
2670,000000	12,662850
2669,000000	12,664494
2668,000000	12,666076
2667,000000	12,667002
2666,000000	12,668265
2665,000000	12,670710
2664,000000	12,673193
2663,000000	12,674402
2662,000000	12,675092
2661,000000	12,676581
2660,000000	12,678484
2659,000000	12,679859
2658,000000	12,681131
2657,000000	12,682995
2656,000000	12,684831
2655,000000	12,686062
2654,000000	12,687624
2653,000000	12,690349
2652,000000	12,693320
2651,000000	12,695565
2650,000000	12,697793
2649,000000	12,700717
2648,000000	12,703335
2647,000000	12,704692
2646,000000	12,705727
2645,000000	12,707538
2644,000000	12,709478
2643,000000	12,710770
2642,000000	12,712302
2641,000000	12,714895
2640,000000	12,717547
2639,000000	12,719324
2638,000000	12,721229
2637,000000	12,724251
2636,000000	12,727293
2635,000000	12,729091
2634,000000	12,730512
2633,000000	12,732868
2632,000000	12,735597
2631,000000	12,737679
2630,000000	12,739676
2629,000000	12,742328
2628,000000	12,744689
2627,000000	12,745794
2626,000000	12,746622
2625,000000	12,748383
2624,000000	12,750440
2623,000000	12,751861
2622,000000	12,753438
2621,000000	12,756093
2620,000000	12,758938
2619,000000	12,760923
2618,000000	12,762789
2617,000000	12,765405
2616,000000	12,767868
2615,000000	12,769305
2614,000000	12,770855
2613,000000	12,773674
2612,000000	12,776648
2611,000000	12,778258
2610,000000	12,779148
2609,000000	12,780683
2608,000000	12,782538
2607,000000	12,783851
2606,000000	12,785211
2605,000000	12,787360
2604,000000	12,789343
2603,000000	12,790098
2602,000000	12,790340
2601,000000	12,790963
2600,000000	12,791140
2599,000000	12,790064
2598,000000	12,788921
2597,000000	12,789048
2596,000000	12,789719
2595,000000	12,789794
2594,000000	12,789945
2593,000000	12,791132
2592,000000	12,792568
2591,000000	12,793303
2590,000000	12,794230
2589,000000	12,796343
2588,000000	12,798623
2587,000000	12,799811
2586,000000	12,800729
2585,000000	12,802669
2584,000000	12,805078
2583,000000	12,806928
2582,000000	12,808781
2581,000000	12,811391
2580,000000	12,813855
2579,000000	12,815304
2578,000000	12,816843
2577,000000	12,819667
2576,000000	12,822819
2575,000000	12,824901
2574,000000	12,826401
2573,000000	12,828245
2572,000000	12,829779
2571,000000	12,830286
2570,000000	12,830894
2569,000000	12,832673
2568,000000	12,834518
2567,000000	12,835075
2566,000000	12,835214
2565,000000	12,836366
2564,000000	12,838023
2563,000000	12,839066
2562,000000	12,840011
2561,000000	12,841749
2560,000000	12,843547
2559,000000	12,844509
2558,000000	12,845433
2557,000000	12,847191
2556,000000	12,848789
2555,000000	12,849163
2554,000000	12,849250
2553,000000	12,850260
2552,000000	12,851519
2551,000000	12,852107
2550,000000	12,852867
2549,000000	12,854670
2548,000000	12,856439
2547,000000	12,857068
2546,000000	12,857589
2545,000000	12,859251
2544,000000	12,861200
2543,000000	12,862227
2542,000000	12,863049
2541,000000	12,864626
2540,000000	12,866033
2539,000000	12,866278
2538,000000	12,866497
2537,000000	12,868000
2536,000000	12,869890
2535,000000	12,870845
2534,000000	12,871571
2533,000000	12,873177
2532,000000	12,874872
2531,000000	12,875659
2530,000000	12,876515
2529,000000	12,878589
2528,000000	12,880846
2527,000000	12,881913
2526,000000	12,882566
2525,000000	12,884071
2524,000000	12,885735
2523,000000	12,886433
2522,000000	12,886884
2521,000000	12,888091
2520,000000	12,889181
2519,000000	12,889162
2518,000000	12,889104
2517,000000	12,890229
2516,000000	12,891544
2515,000000	12,891667
2514,000000	12,891366
2513,000000	12,891887
2512,000000	12,892499
2511,000000	12,892026
2510,000000	12,891125
2509,000000	12,890745
2508,000000	12,890078
2507,000000	12,888365
2506,000000	12,886935
2505,000000	12,887081
2504,000000	12,887674
2503,000000	12,887279
2502,000000	12,886773
2501,000000	12,887403
2500,000000	12,888120
2499,000000	12,887477
2498,000000	12,886363
2497,000000	12,886254
2496,000000	12,886460
2495,000000	12,885713
2494,000000	12,884838
2493,000000	12,885200
2492,000000	12,886081
2491,000000	12,886149
2490,000000	12,885982
2489,000000	12,886612
2488,000000	12,887230
2487,000000	12,886822
2486,000000	12,886419
2485,000000	12,887152
2484,000000	12,887778
2483,000000	12,886755
2482,000000	12,885171
2481,000000	12,884984
2480,000000	12,885855
2479,000000	12,886352
2478,000000	12,886671
2477,000000	12,887621
2476,000000	12,888369
2475,000000	12,887878
2474,000000	12,887105
2473,000000	12,887328
2472,000000	12,887712
2471,000000	12,887012
2470,000000	12,886092
2469,000000	12,886282
2468,000000	12,886821
2467,000000	12,886465
2466,000000	12,886036
2465,000000	12,886808
2464,000000	12,887927
2463,000000	12,887963
2462,000000	12,887542
2461,000000	12,887936
2460,000000	12,888575
2459,000000	12,888438
2458,000000	12,888314
2457,000000	12,889233
2456,000000	12,890235
2455,000000	12,890179
2454,000000	12,890087
2453,000000	12,891220
2452,000000	12,892553
2451,000000	12,892742
2450,000000	12,892830
2449,000000	12,894330
2448,000000	12,896289
2447,000000	12,897039
2446,000000	12,897236
2445,000000	12,898406
2444,000000	12,900024
2443,000000	12,900814
2442,000000	12,901432
2441,000000	12,903083
2440,000000	12,904925
2439,000000	12,905542
2438,000000	12,905639
2437,000000	12,906567
2436,000000	12,907668
2435,000000	12,907713
2434,000000	12,907493
2433,000000	12,908251
2432,000000	12,909026
2431,000000	12,908328
2430,000000	12,907023
2429,000000	12,906816
2428,000000	12,907253
2427,000000	12,906948
2426,000000	12,906357
2425,000000	12,906600
2424,000000	12,906896
2423,000000	12,905992
2422,000000	12,904832
2421,000000	12,905003
2420,000000	12,905770
2419,000000	12,905437
2418,000000	12,904432
2417,000000	12,904295
2416,000000	12,904806
2415,000000	12,904787
2414,000000	12,904606
2413,000000	12,905194
2412,000000	12,905756
2411,000000	12,905115
2410,000000	12,904168
2409,000000	12,904382
2408,000000	12,905068
2407,000000	12,904759
2406,000000	12,904062
2405,000000	12,904411
2404,000000	12,905223
2403,000000	12,905079
2402,000000	12,904573
2401,000000	12,905187
2400,000000	12,906353
2399,000000	12,906477
2398,000000	12,905855
2397,000000	12,905822
2396,000000	12,905867
2395,000000	12,904392
2394,000000	12,901246
2393,000000	12,896516
2392,000000	12,887437
2391,000000	12,868385
2390,000000	12,833708
2389,000000	12,776465
2388,000000	12,685344
2387,000000	12,546534
2386,000000	12,346447
2385,000000	12,074797
2384,000000	11,723604
2383,000000	11,289861
2382,000000	10,781221
2381,000000	10,213603
2380,000000	9,607564
2379,000000	8,983451
2378,000000	8,360298
2377,000000	7,754116
2376,000000	7,174426
2375,000000	6,625793
2374,000000	6,111520
2373,000000	5,635597
2372,000000	5,199748
2371,000000	4,803971
2370,000000	4,448428
2369,000000	4,134048
2368,000000	3,860818
2367,000000	3,625844
2366,000000	3,427848
2365,000000	3,268067
2364,000000	3,146781
2363,000000	3,061417
2362,000000	3,008386
2361,000000	2,989149
2360,000000	3,009311
2359,000000	3,073938
2358,000000	3,188360
2357,000000	3,359205
2356,000000	3,595624
2355,000000	3,908504
2354,000000	4,315107
2353,000000	4,837131
2352,000000	5,463303
2351,000000	6,094982
2350,000000	6,542050
2349,000000	6,625505
2348,000000	6,315014
2347,000000	5,768398
2346,000000	5,218517
2345,000000	4,817700
2344,000000	4,585023
2343,000000	4,467534
2342,000000	4,418807
2341,000000	4,415029
2340,000000	4,439696
2339,000000	4,478332
2338,000000	4,526911
2337,000000	4,585069
2336,000000	4,644341
2335,000000	4,690071
2334,000000	4,715629
2333,000000	4,730925
2332,000000	4,757830
2331,000000	4,819846
2330,000000	4,929935
2329,000000	5,080512
2328,000000	5,246063
2327,000000	5,399783
2326,000000	5,530129
2325,000000	5,645062
2324,000000	5,764704
2323,000000	5,912902
2322,000000	6,107616
2321,000000	6,353104
2320,000000	6,639817
2319,000000	6,950055
2318,000000	7,261566
2317,000000	7,548975
2316,000000	7,793075
2315,000000	7,995196
2314,000000	8,177761
2313,000000	8,366981
2312,000000	8,576195
2311,000000	8,805921
2310,000000	9,051644
2309,000000	9,307122
2308,000000	9,564714
2307,000000	9,818185
2306,000000	10,062906
2305,000000	10,291583
2304,000000	10,495199
2303,000000	10,671791
2302,000000	10,829531
2301,000000	10,977971
2300,000000	11,119482
2299,000000	11,252841
2298,000000	11,379308
2297,000000	11,500749
2296,000000	11,616413
2295,000000	11,725649
2294,000000	11,831093
2293,000000	11,934878
2292,000000	12,035207
2291,000000	12,130391
2290,000000	12,222475
2289,000000	12,313607
2288,000000	12,402306
2287,000000	12,485900
2286,000000	12,562536
2285,000000	12,626918
2284,000000	12,669451
2283,000000	12,685047
2282,000000	12,679260
2281,000000	12,662612
2280,000000	12,641623
2279,000000	12,619355
2278,000000	12,599672
2277,000000	12,585394
2276,000000	12,575346
2275,000000	12,567385
2274,000000	12,562323
2273,000000	12,561137
2272,000000	12,561809
2271,000000	12,562514
2270,000000	12,564948
2269,000000	12,570837
2268,000000	12,578488
2267,000000	12,586347
2266,000000	12,596388
2265,000000	12,610241
2264,000000	12,625474
2263,000000	12,639491
2262,000000	12,653751
2261,000000	12,670201
2260,000000	12,687038
2259,000000	12,701962
2258,000000	12,716246
2257,000000	12,731729
2256,000000	12,746964
2255,000000	12,760268
2254,000000	12,773218
2253,000000	12,787397
2252,000000	12,800914
2251,000000	12,811899
2250,000000	12,822083
2249,000000	12,833210
2248,000000	12,843428
2247,000000	12,850962
2246,000000	12,857861
2245,000000	12,866193
2244,000000	12,874073
2243,000000	12,879358
2242,000000	12,883793
2241,000000	12,889547
2240,000000	12,895175
2239,000000	12,898928
2238,000000	12,902575
2237,000000	12,907888
2236,000000	12,912863
2235,000000	12,915460
2234,000000	12,917633
2233,000000	12,921676
2232,000000	12,925989
2231,000000	12,928538
2230,000000	12,930914
2229,000000	12,934968
2228,000000	12,938841
2227,000000	12,940499
2226,000000	12,941659
2225,000000	12,944193
2224,000000	12,946125
2223,000000	12,945373
2222,000000	12,943914
2221,000000	12,944069
2220,000000	12,944313
2219,000000	12,942819
2218,000000	12,941578
2217,000000	12,942609
2216,000000	12,943786
2215,000000	12,942704
2214,000000	12,941173
2213,000000	12,941531
2212,000000	12,942104
2211,000000	12,940729
2210,000000	12,939191
2209,000000	12,939658
2208,000000	12,940218
2207,000000	12,938617
2206,000000	12,936878
2205,000000	12,937714
2204,000000	12,939609
2203,000000	12,939988
2202,000000	12,939896
2201,000000	12,941111
2200,000000	12,941971
2199,000000	12,940649
2198,000000	12,939227
2197,000000	12,940028
2196,000000	12,941213
2195,000000	12,940390
2194,000000	12,939245
2193,000000	12,940081
2192,000000	12,941236
2191,000000	12,940373
2190,000000	12,939102
2189,000000	12,939747
2188,000000	12,940941
2187,000000	12,940742
2186,000000	12,940755
2185,000000	12,942703
2184,000000	12,944358
2183,000000	12,943401
2182,000000	12,941828
2181,000000	12,942184
2180,000000	12,942823
2179,000000	12,941460
2178,000000	12,939710
2177,000000	12,939650
2176,000000	12,939403
2175,000000	12,936775
2174,000000	12,933695
2173,000000	12,932464
2172,000000	12,931240
2171,000000	12,927866
2170,000000	12,924565
2169,000000	12,924039
2168,000000	12,924501
2167,000000	12,923147
2166,000000	12,921018
2165,000000	12,919818
2164,000000	12,917847
2163,000000	12,913850
2162,000000	12,911027
2161,000000	12,912144
2160,000000	12,914336
2159,000000	12,913730
2158,000000	12,911484
2157,000000	12,910357
2156,000000	12,909125
2155,000000	12,905802
2154,000000	12,902576
2153,000000	12,902224
2152,000000	12,902846
2151,000000	12,901427
2150,000000	12,899159
2149,000000	12,898297
2148,000000	12,897285
2147,000000	12,894215
2146,000000	12,891543
2145,000000	12,891990
2144,000000	12,893202
2143,000000	12,891655
2142,000000	12,888502
2141,000000	12,886164
2140,000000	12,882856
2139,000000	12,876208
2138,000000	12,869268
2137,000000	12,867076
2136,000000	12,869720
2135,000000	12,873768
2134,000000	12,877767
2133,000000	12,881546
2132,000000	12,883082
2131,000000	12,881201
2130,000000	12,878747
2129,000000	12,878472
2128,000000	12,878576
2127,000000	12,876572
2126,000000	12,874174
2125,000000	12,873936
2124,000000	12,874413
2123,000000	12,873378
2122,000000	12,872349
2121,000000	12,873280
2120,000000	12,873903
2119,000000	12,870944
2118,000000	12,865104
2117,000000	12,859038
2116,000000	12,853918
2115,000000	12,851356
2114,000000	12,854389
2113,000000	12,862370
2112,000000	12,869213
2111,000000	12,870848
2110,000000	12,870242
2109,000000	12,871180
2108,000000	12,872310
2107,000000	12,871664
2106,000000	12,871661
2105,000000	12,874393
2104,000000	12,876822
2103,000000	12,876028
2102,000000	12,874557
2101,000000	12,875598
2100,000000	12,877346
2099,000000	12,877249
2098,000000	12,877129
2097,000000	12,879205
2096,000000	12,881292
2095,000000	12,880330
2094,000000	12,875974
2093,000000	12,867291
2092,000000	12,852510
2091,000000	12,836391
2090,000000	12,830453
2089,000000	12,839652
2088,000000	12,855322
2087,000000	12,866652
2086,000000	12,872829
2085,000000	12,877724
2084,000000	12,880458
2083,000000	12,878950
2082,000000	12,876334
2081,000000	12,875875
2080,000000	12,874903
2079,000000	12,870884
2078,000000	12,867710
2077,000000	12,869070
2076,000000	12,871547
2075,000000	12,871462
2074,000000	12,872107
2073,000000	12,877043
2072,000000	12,882624
2071,000000	12,884072
2070,000000	12,881101
2069,000000	12,870192
2068,000000	12,841779
2067,000000	12,797332
2066,000000	12,760931
2065,000000	12,758584
2064,000000	12,789174
2063,000000	12,827604
2062,000000	12,853904
2061,000000	12,867262
2060,000000	12,874747
2059,000000	12,880090
2058,000000	12,884784
2057,000000	12,889756
2056,000000	12,893180
2055,000000	12,893116
2054,000000	12,892081
2053,000000	12,893454
2052,000000	12,895528
2051,000000	12,895079
2050,000000	12,893526
2049,000000	12,893444
2048,000000	12,892459
2047,000000	12,886903
2046,000000	12,876801
2045,000000	12,861347
2044,000000	12,836613
2043,000000	12,806774
2042,000000	12,790190
2041,000000	12,802186
2040,000000	12,835449
2039,000000	12,867951
2038,000000	12,887291
2037,000000	12,896533
2036,000000	12,900833
2035,000000	12,901222
2034,000000	12,900305
2033,000000	12,901991
2032,000000	12,904660
2031,000000	12,903425
2030,000000	12,898851
2029,000000	12,895647
2028,000000	12,894200
2027,000000	12,891451
2026,000000	12,888122
2025,000000	12,887118
2024,000000	12,887040
2023,000000	12,883499
2022,000000	12,871814
2021,000000	12,842077
2020,000000	12,782491
2019,000000	12,702168
2018,000000	12,642866
2017,000000	12,647682
2016,000000	12,715980
2015,000000	12,803565
2014,000000	12,868038
2013,000000	12,899153
2012,000000	12,907175
2011,000000	12,902089
2010,000000	12,891898
2009,000000	12,886021
2008,000000	12,888470
2007,000000	12,894720
2006,000000	12,900607
2005,000000	12,906738
2004,000000	12,911440
2003,000000	12,909267
2002,000000	12,899931
2001,000000	12,889948
2000,000000	12,883399
1999,000000	12,880553
1998,000000	12,883134
1997,000000	12,882993
1996,000000	12,845551
1995,000000	12,732958
1994,000000	12,561338
1993,000000	12,415684
1992,000000	12,380286
1991,000000	12,458038
1990,000000	12,578447
1989,000000	12,677670
1988,000000	12,746746
1987,000000	12,804446
1986,000000	12,853957
1985,000000	12,883987
1984,000000	12,893693
1983,000000	12,895019
1982,000000	12,895827
1981,000000	12,895199
1980,000000	12,892716
1979,000000	12,890808
1978,000000	12,889673
1977,000000	12,887775
1976,000000	12,886357
1975,000000	12,887622
1974,000000	12,890408
1973,000000	12,890918
1972,000000	12,879807
1971,000000	12,835180
1970,000000	12,735517
1969,000000	12,597742
1968,000000	12,491426
1967,000000	12,487222
1966,000000	12,586326
1965,000000	12,717546
1964,000000	12,808370
1963,000000	12,842430
1962,000000	12,846227
1961,000000	12,845211
1960,000000	12,846797
1959,000000	12,848126
1958,000000	12,842710
1957,000000	12,827142
1956,000000	12,811088
1955,000000	12,812144
1954,000000	12,833514
1953,000000	12,858774
1952,000000	12,873388
1951,000000	12,876055
1950,000000	12,864711
1949,000000	12,830514
1948,000000	12,771490
1947,000000	12,686842
1946,000000	12,553325
1945,000000	12,350099
1944,000000	12,131966
1943,000000	12,033169
1942,000000	12,146033
1941,000000	12,411745
1940,000000	12,672745
1939,000000	12,824851
1938,000000	12,878867
1937,000000	12,889987
1936,000000	12,886045
1935,000000	12,873392
1934,000000	12,863838
1933,000000	12,867046
1932,000000	12,877763
1931,000000	12,886979
1930,000000	12,894641
1929,000000	12,901438
1928,000000	12,894064
1927,000000	12,839744
1926,000000	12,700835
1925,000000	12,484450
1924,000000	12,282069
1923,000000	12,206163
1922,000000	12,246911
1921,000000	12,245991
1920,000000	12,086405
1919,000000	11,875490
1918,000000	11,848901
1917,000000	12,092447
1916,000000	12,449341
1915,000000	12,710264
1914,000000	12,802574
1913,000000	12,766867
1912,000000	12,651961
1911,000000	12,508167
1910,000000	12,416597
1909,000000	12,437158
1908,000000	12,542421
1907,000000	12,656139
1906,000000	12,737111
1905,000000	12,788994
1904,000000	12,817336
1903,000000	12,824765
1902,000000	12,829403
1901,000000	12,844992
1900,000000	12,850741
1899,000000	12,810332
1898,000000	12,714042
1897,000000	12,591741
1896,000000	12,499113
1895,000000	12,485916
1894,000000	12,535468
1893,000000	12,534627
1892,000000	12,375526
1891,000000	12,114809
1890,000000	11,963582
1889,000000	12,063859
1888,000000	12,331181
1887,000000	12,569107
1886,000000	12,685231
1885,000000	12,728131
1884,000000	12,760167
1883,000000	12,788861
1882,000000	12,806611
1881,000000	12,819363
1880,000000	12,826099
1879,000000	12,821295
1878,000000	12,816914
1877,000000	12,826927
1876,000000	12,839835
1875,000000	12,830113
1874,000000	12,766961
1873,000000	12,576306
1872,000000	12,162384
1871,000000	11,551725
1870,000000	10,986355
1869,000000	10,768633
1868,000000	10,998018
1867,000000	11,506687
1866,000000	12,039879
1865,000000	12,437383
1864,000000	12,656589
1863,000000	12,726786
1862,000000	12,718959
1861,000000	12,704320
1860,000000	12,706262
1859,000000	12,713016
1858,000000	12,727824
1857,000000	12,764056
1856,000000	12,803468
1855,000000	12,813882
1854,000000	12,803749
1853,000000	12,800012
1852,000000	12,778171
1851,000000	12,684778
1850,000000	12,517748
1849,000000	12,303050
1848,000000	11,988619
1847,000000	11,480695
1846,000000	10,850472
1845,000000	10,412879
1844,000000	10,483404
1843,000000	11,059374
1842,000000	11,802505
1841,000000	12,338773
1840,000000	12,536865
1839,000000	12,514934
1838,000000	12,453364
1837,000000	12,447527
1836,000000	12,497664
1835,000000	12,541259
1834,000000	12,456390
1833,000000	12,110304
1832,000000	11,516622
1831,000000	10,941824
1830,000000	10,725698
1829,000000	10,928484
1828,000000	11,243423
1827,000000	11,357359
1826,000000	11,308424
1825,000000	11,383242
1824,000000	11,717584
1823,000000	12,149469
1822,000000	12,459167
1821,000000	12,590856
1820,000000	12,607181
1819,000000	12,565040
1818,000000	12,514741
1817,000000	12,516379
1816,000000	12,565861
1815,000000	12,557573
1814,000000	12,395489
1813,000000	12,117519
1812,000000	11,863825
1811,000000	11,755474
1810,000000	11,825889
1809,000000	12,024335
1808,000000	12,245918
1807,000000	12,386066
1806,000000	12,394377
1805,000000	12,263423
1804,000000	11,987382
1803,000000	11,596927
1802,000000	11,226279
1801,000000	11,054268
1800,000000	11,142348
1799,000000	11,382428
1798,000000	11,611750
1797,000000	11,694134
1796,000000	11,505753
1795,000000	10,986222
1794,000000	10,297385
1793,000000	9,820526
1792,000000	9,882307
1791,000000	10,473855
1790,000000	11,272388
1789,000000	11,898966
1788,000000	12,141758
1787,000000	12,038570
1786,000000	11,819247
1785,000000	11,706045
1784,000000	11,713317
1783,000000	11,687331
1782,000000	11,561852
1781,000000	11,473678
1780,000000	11,560535
1779,000000	11,750169
1778,000000	11,839469
1777,000000	11,685341
1776,000000	11,229854
1775,000000	10,471473
1774,000000	9,582417
1773,000000	8,958425
1772,000000	8,930846
1771,000000	9,413453
1770,000000	10,006982
1769,000000	10,464158
1768,000000	10,880283
1767,000000	11,376991
1766,000000	11,785358
1765,000000	11,799819
1764,000000	11,376883
1763,000000	10,852227
1762,000000	10,634007
1761,000000	10,815509
1760,000000	11,118589
1759,000000	11,214148
1758,000000	11,090522
1757,000000	11,037474
1756,000000	11,223514
1755,000000	11,405196
1754,000000	11,178749
1753,000000	10,480899
1752,000000	9,684772
1751,000000	9,197963
1750,000000	9,131194
1749,000000	9,369556
1748,000000	9,774621
1747,000000	10,209379
1746,000000	10,515926
1745,000000	10,618656
1744,000000	10,578126
1743,000000	10,453898
1742,000000	10,223809
1741,000000	9,953306
1740,000000	9,882428
1739,000000	10,116629
1738,000000	10,290947
1737,000000	9,859775
1736,000000	8,792961
1735,000000	7,775953
1734,000000	7,556483
1733,000000	8,213180
1732,000000	9,210438
1731,000000	10,042192
1730,000000	10,627471
1729,000000	11,116388
1728,000000	11,544265
1727,000000	11,796059
1726,000000	11,809248
1725,000000	11,682342
1724,000000	11,572892
1723,000000	11,492217
1722,000000	11,230782
1721,000000	10,516282
1720,000000	9,337837
1719,000000	8,099189
1718,000000	7,356135
1717,000000	7,370006
1716,000000	7,969105
1715,000000	8,822125
1714,000000	9,710663
1713,000000	10,503439
1712,000000	11,048635
1711,000000	11,246789
1710,000000	11,142137
1709,000000	10,816449
1708,000000	10,293036
1707,000000	9,685895
1706,000000	9,294061
1705,000000	9,262195
1704,000000	9,224059
1703,000000	8,625803
1702,000000	7,494048
1701,000000	6,565866
1700,000000	6,446545
1699,000000	6,902501
1698,000000	7,271375
1697,000000	7,375240
1696,000000	7,681329
1695,000000	8,569918
1694,000000	9,778588
1693,000000	10,691870
1692,000000	10,972479
1691,000000	10,792049
1690,000000	10,511400
1689,000000	10,256164
1688,000000	9,785924
1687,000000	8,809724
1686,000000	7,485027
1685,000000	6,501265
1684,000000	6,502619
1683,000000	7,452359
1682,000000	8,707262
1681,000000	9,693442
1680,000000	10,268385
1679,000000	10,450715
1678,000000	10,171289
1677,000000	9,507415
1676,000000	8,902128
1675,000000	8,798719
1674,000000	9,109245
1673,000000	9,292239
1672,000000	9,001219
1671,000000	8,472144
1670,000000	8,241293
1669,000000	8,621916
1668,000000	9,468348
1667,000000	10,307144
1666,000000	10,663143
1665,000000	10,399663
1664,000000	9,855730
1663,000000	9,574850
1662,000000	9,817631
1661,000000	10,378410
1660,000000	10,864395
1659,000000	11,024668
1658,000000	10,740471
1657,000000	9,857692
1656,000000	8,315806
1655,000000	6,495744
1654,000000	5,231994
1653,000000	5,220902
1652,000000	6,351262
1651,000000	7,716668
1650,000000	8,356380
1649,000000	8,043463
1648,000000	7,362500
1647,000000	7,108978
1646,000000	7,633955
1645,000000	8,688943
1644,000000	9,745223
1643,000000	10,425128
1642,000000	10,664587
1641,000000	10,570190
1640,000000	10,176685
1639,000000	9,407125
1638,000000	8,313198
1637,000000	7,287788
1636,000000	6,899689
1635,000000	7,430378
1634,000000	8,598429
1633,000000	9,782264
1632,000000	10,478632
1631,000000	10,569196
1630,000000	10,266836
1629,000000	9,900918
1628,000000	9,690049
1627,000000	9,604318
1626,000000	9,438369
1625,000000	9,102312
1624,000000	8,816969
1623,000000	8,912631
1622,000000	9,406084
1621,000000	9,865351
1620,000000	9,785157
1619,000000	9,092295
1618,000000	8,246653
1617,000000	7,865696
1616,000000	8,225967
1615,000000	9,080462
1614,000000	9,909359
1613,000000	10,342241
1612,000000	10,370190
1611,000000	10,217388
1610,000000	10,079605
1609,000000	10,024768
1608,000000	10,055710
1607,000000	10,156322
1606,000000	10,268272
1605,000000	10,317179
1604,000000	10,298110
1603,000000	10,287477
1602,000000	10,343548
1601,000000	10,439358
1600,000000	10,514971
1599,000000	10,543355
1598,000000	10,520854
1597,000000	10,447316
1596,000000	10,355901
1595,000000	10,316206
1594,000000	10,361373
1593,000000	10,441998
1592,000000	10,493117
1591,000000	10,516109
1590,000000	10,551235
1589,000000	10,601611
1588,000000	10,636401
1587,000000	10,649469
1586,000000	10,659512
1585,000000	10,662851
1584,000000	10,641243
1583,000000	10,609763
1582,000000	10,590425
1581,000000	10,502248
1580,000000	10,147626
1579,000000	9,391473
1578,000000	8,401906
1577,000000	7,659445
1576,000000	7,628922
1575,000000	8,329619
1574,000000	9,223732
1573,000000	9,621031
1572,000000	9,274085
1571,000000	8,581342
1570,000000	8,180149
1569,000000	8,358642
1568,000000	8,872457
1567,000000	9,296900
1566,000000	9,450923
1565,000000	9,432277
1564,000000	9,284997
1563,000000	8,767337
1562,000000	7,591621
1561,000000	5,921261
1560,000000	4,496834
1559,000000	4,084504
1558,000000	4,774670
1557,000000	5,947272
1556,000000	6,944846
1555,000000	7,621060
1554,000000	8,168444
1553,000000	8,644337
1552,000000	8,913351
1551,000000	8,979381
1550,000000	9,053300
1549,000000	9,224988
1548,000000	9,270436
1547,000000	8,929911
1546,000000	8,236721
1545,000000	7,440044
1544,000000	6,686971
1543,000000	5,937192
1542,000000	5,192212
1541,000000	4,694086
1540,000000	4,818628
1539,000000	5,724376
1538,000000	7,074457
1537,000000	8,160251
1536,000000	8,448511
1535,000000	8,077098
1534,000000	7,714565
1533,000000	7,885459
1532,000000	8,491887
1531,000000	9,032369
1530,000000	9,139468
1529,000000	8,826927
1528,000000	8,337076
1527,000000	7,913141
1526,000000	7,648112
1525,000000	7,414844
1524,000000	6,996348
1523,000000	6,403656
1522,000000	5,992463
1521,000000	6,088341
1520,000000	6,559158
1519,000000	6,961683
1518,000000	7,111419
1517,000000	7,265971
1516,000000	7,684514
1515,000000	8,237598
1514,000000	8,593582
1513,000000	8,621802
1512,000000	8,402014
1511,000000	7,942564
1510,000000	7,131389
1509,000000	6,026602
1508,000000	5,047569
1507,000000	4,755368
1506,000000	5,418694
1505,000000	6,776096
1504,000000	8,196429
1503,000000	9,098879
1502,000000	9,288026
1501,000000	8,942648
1500,000000	8,353692
1499,000000	7,736069
1498,000000	7,270817
1497,000000	7,159285
1496,000000	7,496974
1495,000000	8,090501
1494,000000	8,520210
1493,000000	8,457899
1492,000000	7,944617
1491,000000	7,349902
1490,000000	7,068397
1489,000000	7,243554
1488,000000	7,758314
1487,000000	8,417943
1486,000000	9,077530
1485,000000	9,609615
1484,000000	9,888820
1483,000000	9,908580
1482,000000	9,838917
1481,000000	9,841153
1480,000000	9,848829
1479,000000	9,656865
1478,000000	9,206505
1477,000000	8,637709
1476,000000	8,063937
1475,000000	7,479310
1474,000000	6,969078
1473,000000	6,822865
1472,000000	7,278230
1471,000000	8,201941
1470,000000	9,144674
1469,000000	9,678921
1468,000000	9,644019
1467,000000	9,183634
1466,000000	8,662953
1465,000000	8,474925
1464,000000	8,745144
1463,000000	9,193561
1462,000000	9,339103
1461,000000	8,873431
1460,000000	7,846908
1459,000000	6,629252
1458,000000	5,752382
1457,000000	5,654751
1456,000000	6,371441
1455,000000	7,475052
1454,000000	8,423112
1453,000000	8,968232
1452,000000	9,179420
1451,000000	9,170247
1450,000000	8,996876
1449,000000	8,786287
1448,000000	8,754718
1447,000000	9,001619
1446,000000	9,391543
1445,000000	9,709936
1444,000000	9,870785
1443,000000	9,928271
1442,000000	9,932148
1441,000000	9,817190
1440,000000	9,434137
1439,000000	8,729325
1438,000000	7,938448
1437,000000	7,518444
1436,000000	7,755340
1435,000000	8,449311
1434,000000	9,083684
1433,000000	9,315948
1432,000000	9,209724
1431,000000	9,037607
1430,000000	9,005794
1429,000000	9,161614
1428,000000	9,401916
1427,000000	9,525188
1426,000000	9,406804
1425,000000	9,163467
1424,000000	9,012018
1423,000000	8,927932
1422,000000	8,632752
1421,000000	8,013137
1420,000000	7,392518
1419,000000	7,231679
1418,000000	7,642012
1417,000000	8,338293
1416,000000	8,973375
1415,000000	9,384119
1414,000000	9,563707
1413,000000	9,574775
1412,000000	9,523313
1411,000000	9,504248
1410,000000	9,519880
1409,000000	9,487516
1408,000000	9,336987
1407,000000	9,081734
1406,000000	8,827479
1405,000000	8,721238
1404,000000	8,823378
1403,000000	8,990189
1402,000000	8,965448
1401,000000	8,662551
1400,000000	8,285844
1399,000000	8,076853
1398,000000	8,028903
1397,000000	7,970830
1396,000000	7,874927
1395,000000	7,922793
1394,000000	8,246430
1393,000000	8,737454
1392,000000	9,140929
1391,000000	9,260047
1390,000000	9,064331
1389,000000	8,698448
1388,000000	8,420734
1387,000000	8,436247
1386,000000	8,724772
1385,000000	9,074961
1384,000000	9,303591
1383,000000	9,388193
1382,000000	9,393301
1381,000000	9,358999
1380,000000	9,301125
1379,000000	9,234676
1378,000000	9,134340
1377,000000	8,935580
1376,000000	8,647280
1375,000000	8,419994
1374,000000	8,423184
1373,000000	8,659969
1372,000000	8,953276
1371,000000	9,125019
1370,000000	9,150335
1369,000000	9,132874
1368,000000	9,158209
1367,000000	9,184568
1366,000000	9,085854
1365,000000	8,805349
1364,000000	8,457479
1363,000000	8,255196
1362,000000	8,322426
1361,000000	8,596514
1360,000000	8,910644
1359,000000	9,135908
1358,000000	9,239757
1357,000000	9,253642
1356,000000	9,230053
1355,000000	9,218078
1354,000000	9,238520
1353,000000	9,271362
1352,000000	9,282771
1351,000000	9,265677
1350,000000	9,244136
1349,000000	9,241114
1348,000000	9,255567
1347,000000	9,272791
1346,000000	9,282569
1345,000000	9,274362
1344,000000	9,217716
1343,000000	9,068156
1342,000000	8,816947
1341,000000	8,536173
1340,000000	8,352006
1339,000000	8,350174
1338,000000	8,508585
1337,000000	8,732146
1336,000000	8,936484
1335,000000	9,086272
1334,000000	9,176026
1333,000000	9,210522
1332,000000	9,208568
1331,000000	9,197751
1330,000000	9,192652
1329,000000	9,189163
1328,000000	9,182670
1327,000000	9,176278
1326,000000	9,169954
1325,000000	9,157021
1324,000000	9,132400
1323,000000	9,091327
1322,000000	9,023091
1321,000000	8,925499
1320,000000	8,827509
1319,000000	8,775120
1318,000000	8,784737
1317,000000	8,824557
1316,000000	8,849330
1315,000000	8,844745
1314,000000	8,831619
1313,000000	8,836954
1312,000000	8,868253
1311,000000	8,908784
1310,000000	8,933329
1309,000000	8,932202
1308,000000	8,919274
1307,000000	8,913222
1306,000000	8,915187
1305,000000	8,913515
1304,000000	8,904604
1303,000000	8,895448
1302,000000	8,888668
1301,000000	8,878328
1300,000000	8,861679
1299,000000	8,843048
1298,000000	8,825615
1297,000000	8,809447
1296,000000	8,797179
1295,000000	8,791196
1294,000000	8,785529
1293,000000	8,770428
1292,000000	8,744535
1291,000000	8,713993
1290,000000	8,682375
1289,000000	8,652231
1288,000000	8,632563
1287,000000	8,631360
1286,000000	8,641213
1285,000000	8,645028
1284,000000	8,635559
1283,000000	8,618950
1282,000000	8,600504
1281,000000	8,579396
1280,000000	8,557249
1279,000000	8,539036
1278,000000	8,523774
1277,000000	8,504328
1276,000000	8,476863
1275,000000	8,441508
1274,000000	8,396206
1273,000000	8,341021
1272,000000	8,287239
1271,000000	8,249236
1270,000000	8,226738
1269,000000	8,205800
1268,000000	8,177512
1267,000000	8,145127
1266,000000	8,112296
1265,000000	8,076354
1264,000000	8,035143
1263,000000	7,991854
1262,000000	7,951771
1261,000000	7,921993
1260,000000	7,912506
1259,000000	7,927038
1258,000000	7,953694
1257,000000	7,974572
1256,000000	7,983921
1255,000000	7,988079
1254,000000	7,989964
1253,000000	7,985426
1252,000000	7,974250
1251,000000	7,962188
1250,000000	7,950739
1249,000000	7,935399
1248,000000	7,915037
1247,000000	7,893498
1246,000000	7,871736
1245,000000	7,847852
1244,000000	7,824943
1243,000000	7,808652
1242,000000	7,796719
1241,000000	7,780949
1240,000000	7,759792
1239,000000	7,739282
1238,000000	7,721219
1237,000000	7,700985
1236,000000	7,677574
1235,000000	7,655580
1234,000000	7,635803
1233,000000	7,613725
1232,000000	7,588727
1231,000000	7,565505
1230,000000	7,544695
1229,000000	7,521056
1228,000000	7,492723
1227,000000	7,463989
1226,000000	7,437745
1225,000000	7,412796
1224,000000	7,389336
1223,000000	7,368906
1222,000000	7,348422
1221,000000	7,322434
1220,000000	7,292042
1219,000000	7,263650
1218,000000	7,238693
1217,000000	7,212434
1216,000000	7,182932
1215,000000	7,153088
1214,000000	7,123896
1213,000000	7,094111
1212,000000	7,066548
1211,000000	7,045907
1210,000000	7,030018
1209,000000	7,011683
1208,000000	6,989449
1207,000000	6,968364
1206,000000	6,949868
1205,000000	6,929924
1204,000000	6,907634
1203,000000	6,886776
1202,000000	6,867792
1201,000000	6,846751
1200,000000	6,823499
1199,000000	6,802592
1198,000000	6,784938
1197,000000	6,766314
1196,000000	6,745321
1195,000000	6,725119
1194,000000	6,706289
1193,000000	6,685608
1192,000000	6,662737
1191,000000	6,640669
1190,000000	6,618876
1189,000000	6,593716
1188,000000	6,566356
1187,000000	6,542325
1186,000000	6,522084
1185,000000	6,499600
1184,000000	6,471393
1183,000000	6,440050
1182,000000	6,408177
1181,000000	6,376380
1180,000000	6,347812
1179,000000	6,326635
1178,000000	6,310458
1177,000000	6,291800
1176,000000	6,268442
1175,000000	6,245298
1174,000000	6,225043
1173,000000	6,204272
1172,000000	6,180437
1171,000000	6,155286
1170,000000	6,129577
1169,000000	6,101115
1168,000000	6,070023
1167,000000	6,039706
1166,000000	6,011029
1165,000000	5,981412
1164,000000	5,950779
1163,000000	5,922368
1162,000000	5,896705
1161,000000	5,870832
1160,000000	5,844395
1159,000000	5,820437
1158,000000	5,799245
1157,000000	5,777493
1156,000000	5,754399
1155,000000	5,732663
1154,000000	5,712678
1153,000000	5,691766
1152,000000	5,669878
1151,000000	5,649977
1150,000000	5,631997
1149,000000	5,612481
1148,000000	5,590918
1147,000000	5,570565
1146,000000	5,552328
1145,000000	5,533801
1144,000000	5,514981
1143,000000	5,498866
1142,000000	5,485522
1141,000000	5,471432
1140,000000	5,455425
1139,000000	5,439622
1138,000000	5,424067
1137,000000	5,406281
1136,000000	5,386695
1135,000000	5,368533
1134,000000	5,351700
1133,000000	5,332525
1132,000000	5,310294
1131,000000	5,288068
1130,000000	5,266613
1129,000000	5,243340
1128,000000	5,217972
1127,000000	5,193387
1126,000000	5,169947
1125,000000	5,144837
1124,000000	5,117759
1123,000000	5,091717
1122,000000	5,067311
1121,000000	5,041884
1120,000000	5,015003
1119,000000	4,989313
1118,000000	4,965106
1117,000000	4,939614
1116,000000	4,912432
1115,000000	4,886305
1114,000000	4,861843
1113,000000	4,836831
1112,000000	4,811360
1111,000000	4,788188
1110,000000	4,767392
1109,000000	4,746006
1108,000000	4,723823
1107,000000	4,703962
1106,000000	4,687115
1105,000000	4,670416
1104,000000	4,652850
1103,000000	4,636502
1102,000000	4,621638
1101,000000	4,605847
1100,000000	4,588856
1099,000000	4,573102
1098,000000	4,558760
1097,000000	4,543285
1096,000000	4,526503
1095,000000	4,511186
1094,000000	4,497799
1093,000000	4,483881
1092,000000	4,469114
1091,000000	4,455982
1090,000000	4,444613
1089,000000	4,432114
1088,000000	4,417841
1087,000000	4,404324
1086,000000	4,392195
1085,000000	4,379073
1084,000000	4,364394
1083,000000	4,350447
1082,000000	4,337920
1081,000000	4,325041
1080,000000	4,311959
1079,000000	4,301114
1078,000000	4,292703
1077,000000	4,284351
1076,000000	4,275921
1075,000000	4,269990
1074,000000	4,266778
1073,000000	4,263474
1072,000000	4,259129
1071,000000	4,255678
1070,000000	4,253406
1069,000000	4,250162
1068,000000	4,245748
1067,000000	4,242579
1066,000000	4,241088
1065,000000	4,239014
1064,000000	4,235817
1063,000000	4,233465
1062,000000	4,232195
1061,000000	4,229919
1060,000000	4,226290
1059,000000	4,222836
1058,000000	4,218438
1057,000000	4,208925
1056,000000	4,192270
1055,000000	4,170003
1054,000000	4,143929
1053,000000	4,116006
1052,000000	4,092104
1051,000000	4,080406
1050,000000	4,084973
1049,000000	4,103814
1048,000000	4,133232
1047,000000	4,169916
1046,000000	4,208309
1045,000000	4,241991
1044,000000	4,268805
1043,000000	4,291076
1042,000000	4,310099
1041,000000	4,324708
1040,000000	4,335322
1039,000000	4,344776
1038,000000	4,354165
1037,000000	4,361914
1036,000000	4,367993
1035,000000	4,374634
1034,000000	4,382346
1033,000000	4,389245
1032,000000	4,395126
1031,000000	4,402044
1030,000000	4,410349
1029,000000	4,418077
1028,000000	4,425023
1027,000000	4,433208
1026,000000	4,442811
1025,000000	4,451628
1024,000000	4,459286
1023,000000	4,467937
1022,000000	4,478176
1021,000000	4,488275
1020,000000	4,497987
1019,000000	4,509213
1018,000000	4,522105
1017,000000	4,534675
1016,000000	4,546713
1015,000000	4,560289
1014,000000	4,575675
1013,000000	4,590778
1012,000000	4,605168
1011,000000	4,620702
1010,000000	4,637485
1009,000000	4,653189
1008,000000	4,667121
1007,000000	4,681015
1006,000000	4,695198
1005,000000	4,707727
1004,000000	4,718111
1003,000000	4,728008
1002,000000	4,737618
1001,000000	4,745077
1000,000000	4,750278
999,000000	4,755320
998,000000	4,760650
997,000000	4,764349
996,000000	4,765934
995,000000	4,767235
994,000000	4,768639
993,000000	4,768431
992,000000	4,766390
991,000000	4,764453
990,000000	4,762978
989,000000	4,760021
988,000000	4,755073
987,000000	4,749954
986,000000	4,745189
985,000000	4,739161
984,000000	4,731589
983,000000	4,724321
982,000000	4,717875
981,000000	4,710546
980,000000	4,701896
979,000000	4,693560
978,000000	4,685963
977,000000	4,677486
976,000000	4,667723
975,000000	4,658206
974,000000	4,649234
973,000000	4,639253
972,000000	4,628091
971,000000	4,617477
970,000000	4,607659
969,000000	4,596825
968,000000	4,584523
967,000000	4,572513
966,000000	4,561423
965,000000	4,549880
964,000000	4,537466
963,000000	4,525460
962,000000	4,513962
961,000000	4,501527
960,000000	4,488195
959,000000	4,475719
958,000000	4,464243
957,000000	4,451929
956,000000	4,438469
955,000000	4,425639
954,000000	4,413934
953,000000	4,401797
952,000000	4,388936
951,000000	4,376995
950,000000	4,366361
949,000000	4,355387
948,000000	4,343574
947,000000	4,332359
946,000000	4,322099
945,000000	4,311364
944,000000	4,299814
943,000000	4,288810
942,000000	4,278498
941,000000	4,267393
940,000000	4,255311
939,000000	4,243807
938,000000	4,233084
937,000000	4,221625
936,000000	4,209304
935,000000	4,197814
934,000000	4,187429
933,000000	4,176462
932,000000	4,164507
931,000000	4,153109
930,000000	4,142683
929,000000	4,131791
928,000000	4,120142
927,000000	4,109138
926,000000	4,098905
925,000000	4,087734
924,000000	4,075243
923,000000	4,063036
922,000000	4,051651
921,000000	4,039754
920,000000	4,026955
919,000000	4,014473
918,000000	4,002323
917,000000	3,988899
916,000000	3,973906
915,000000	3,958899
914,000000	3,944250
913,000000	3,928597
912,000000	3,911874
911,000000	3,896005
910,000000	3,881806
909,000000	3,868075
908,000000	3,854387
907,000000	3,841906
906,000000	3,830748
905,000000	3,819386
904,000000	3,807404
903,000000	3,796089
902,000000	3,785647
901,000000	3,774518
900,000000	3,762302
899,000000	3,750567
898,000000	3,740130
897,000000	3,730034
896,000000	3,719872
895,000000	3,710434
894,000000	3,701424
893,000000	3,691147
892,000000	3,679152
891,000000	3,666764
890,000000	3,654355
889,000000	3,640735
888,000000	3,625592
887,000000	3,610002
886,000000	3,593983
885,000000	3,576172
884,000000	3,556532
883,000000	3,536770
882,000000	3,517559
881,000000	3,498016
880,000000	3,478530
879,000000	3,461403
878,000000	3,447985
877,000000	3,437642
876,000000	3,430075
875,000000	3,426132
874,000000	3,425575
873,000000	3,426595
872,000000	3,428466
871,000000	3,432043
870,000000	3,437208
869,000000	3,442114
868,000000	3,445742
867,000000	3,448821
866,000000	3,451489
865,000000	3,452514
864,000000	3,451537
863,000000	3,449832
862,000000	3,447944
861,000000	3,444889
860,000000	3,440302
859,000000	3,435266
858,000000	3,430286
857,000000	3,424544
856,000000	3,417875
855,000000	3,411351
854,000000	3,405349
853,000000	3,399093
852,000000	3,392666
851,000000	3,387301
850,000000	3,383174
849,000000	3,378996
848,000000	3,374363
847,000000	3,370335
846,000000	3,367137
845,000000	3,363468
844,000000	3,358748
843,000000	3,353911
842,000000	3,349261
841,000000	3,343654
840,000000	3,336504
839,000000	3,328623
838,000000	3,320346
837,000000	3,310646
836,000000	3,298742
835,000000	3,284822
834,000000	3,268486
833,000000	3,248533
832,000000	3,224776
831,000000	3,198494
830,000000	3,170590
829,000000	3,141149
828,000000	3,111460
827,000000	3,084640
826,000000	3,063749
825,000000	3,050603
824,000000	3,046816
823,000000	3,053404
822,000000	3,068769
821,000000	3,088654
820,000000	3,108923
819,000000	3,127303
818,000000	3,142242
817,000000	3,152451
816,000000	3,158203
815,000000	3,161325
814,000000	3,162915
813,000000	3,162519
812,000000	3,159915
811,000000	3,156026
810,000000	3,151501
809,000000	3,145877
808,000000	3,138906
807,000000	3,131253
806,000000	3,123366
805,000000	3,115098
804,000000	3,106914
803,000000	3,099978
802,000000	3,094478
801,000000	3,089337
800,000000	3,084153
799,000000	3,080043
798,000000	3,077988
797,000000	3,077697
796,000000	3,078761
795,000000	3,081470
794,000000	3,085803
793,000000	3,090809
792,000000	3,095776
791,000000	3,101008
790,000000	3,106785
789,000000	3,112529
788,000000	3,117583
787,000000	3,121964
786,000000	3,125843
785,000000	3,129091
784,000000	3,131759
783,000000	3,134182
782,000000	3,136295
781,000000	3,137581
780,000000	3,138009
779,000000	3,138213
778,000000	3,138508
777,000000	3,138533
776,000000	3,138077
775,000000	3,137440
774,000000	3,136716
773,000000	3,135509
772,000000	3,133675
771,000000	3,131623
770,000000	3,129630
769,000000	3,127503
768,000000	3,125111
767,000000	3,122628
766,000000	3,119999
765,000000	3,116820
764,000000	3,113014
763,000000	3,109068
762,000000	3,105355
761,000000	3,101683
760,000000	3,097759
759,000000	3,093638
758,000000	3,089407
757,000000	3,084838
756,000000	3,079733
755,000000	3,074406
754,000000	3,069436
753,000000	3,064957
752,000000	3,060478
751,000000	3,055515
750,000000	3,050131
749,000000	3,044617
748,000000	3,038845
747,000000	3,032424
746,000000	3,025424
745,000000	3,018357
744,000000	3,011385
743,000000	3,004270
742,000000	2,997371
741,000000	2,991793
740,000000	2,987958
739,000000	2,984773
738,000000	2,980839
737,000000	2,975798
736,000000	2,969893
735,000000	2,963119
734,000000	2,955588
733,000000	2,947901
732,000000	2,940376
731,000000	2,932743
730,000000	2,925168
729,000000	2,918399
728,000000	2,912397
727,000000	2,906336
726,000000	2,900198
725,000000	2,893410
724,000000	2,881079
723,000000	2,856247
722,000000	2,820398
721,000000	2,788526
720,000000	2,777770
719,000000	2,790337
718,000000	2,811622
717,000000	2,825324
716,000000	2,826369
715,000000	2,819459
714,000000	2,810303
713,000000	2,801304
712,000000	2,792525
711,000000	2,783211
710,000000	2,772511
709,000000	2,760135
708,000000	2,746308
707,000000	2,731343
706,000000	2,715997
705,000000	2,701631
704,000000	2,688652
703,000000	2,675352
702,000000	2,659534
701,000000	2,640561
700,000000	2,618826
699,000000	2,594595
698,000000	2,568826
697,000000	2,543377
696,000000	2,518712
695,000000	2,493083
694,000000	2,465329
693,000000	2,435898
692,000000	2,403890
691,000000	2,367013
690,000000	2,327280
689,000000	2,292602
688,000000	2,268989
687,000000	2,254523
686,000000	2,244168
685,000000	2,236151
684,000000	2,229602
683,000000	2,221368
682,000000	2,210418
681,000000	2,200945
680,000000	2,195865
679,000000	2,192644
678,000000	2,189969
677,000000	2,191571
676,000000	2,198407
675,000000	2,206039
674,000000	2,211139
673,000000	2,200821
672,000000	2,127555
671,000000	1,931453
670,000000	1,630748
669,000000	1,372473
668,000000	1,335660
667,000000	1,557392
666,000000	1,886591
665,000000	2,131482
664,000000	2,221327
663,000000	2,213486
662,000000	2,183152
661,000000	2,154996
660,000000	2,126907
659,000000	2,103018
658,000000	2,087723
657,000000	2,075166
656,000000	2,060999
655,000000	2,050028
654,000000	2,044763
653,000000	2,038661
652,000000	2,027174
651,000000	2,014869
650,000000	2,007302
649,000000	2,005131
648,000000	2,008907
647,000000	2,020022
646,000000	2,034250
645,000000	2,043451
644,000000	2,046028
643,000000	2,047831
642,000000	2,051215
641,000000	2,052288
640,000000	2,049789
639,000000	2,047583
638,000000	2,046207
637,000000	2,041356
636,000000	2,033164
635,000000	2,028189
634,000000	2,029144
633,000000	2,030574
632,000000	2,028128
631,000000	2,023940
630,000000	2,019660
629,000000	2,011572
628,000000	1,997370
627,000000	1,981393
626,000000	1,968927
625,000000	1,960153
624,000000	1,953049
623,000000	1,946836
622,000000	1,938707
621,000000	1,922381
620,000000	1,894888
619,000000	1,862571
618,000000	1,836663
617,000000	1,824446
616,000000	1,825236
615,000000	1,831951
614,000000	1,835440
613,000000	1,830343
612,000000	1,818396
611,000000	1,804624
610,000000	1,790659
609,000000	1,774715
608,000000	1,756963
607,000000	1,740473
606,000000	1,726938
605,000000	1,715237
604,000000	1,704385
603,000000	1,694133
602,000000	1,683261
601,000000	1,671136
600,000000	1,660466
599,000000	1,654097
598,000000	1,649873
597,000000	1,642634
596,000000	1,630557
595,000000	1,615129
594,000000	1,596746
593,000000	1,576222
592,000000	1,559315
591,000000	1,552631
590,000000	1,554078
589,000000	1,553775
588,000000	1,545328
587,000000	1,531345
586,000000	1,516801
585,000000	1,502611
584,000000	1,487554
583,000000	1,471698
582,000000	1,455969
581,000000	1,441311
580,000000	1,428649
579,000000	1,416897
578,000000	1,402317
577,000000	1,384122
576,000000	1,368783
575,000000	1,362809
574,000000	1,362661
573,000000	1,357902
572,000000	1,344251
571,000000	1,326731
570,000000	1,310401
569,000000	1,295624
568,000000	1,282969
567,000000	1,274981
566,000000	1,270514
565,000000	1,264151
564,000000	1,253726
563,000000	1,242921
562,000000	1,234109
561,000000	1,224748
560,000000	1,213041
559,000000	1,201293
558,000000	1,190943
557,000000	1,179805
556,000000	1,167144
555,000000	1,155992
554,000000	1,147559
553,000000	1,138270
552,000000	1,125672
551,000000	1,112291
550,000000	1,100744
549,000000	1,089537
548,000000	1,077175
547,000000	1,066128
546,000000	1,059115
545,000000	1,054917
544,000000	1,050868
543,000000	1,046400
542,000000	1,041469
541,000000	1,034842
540,000000	1,026319
539,000000	1,017712
538,000000	1,009611
537,000000	1,000577
536,000000	0,990877
535,000000	0,983213
534,000000	0,977899
533,000000	0,971736
532,000000	0,963396
531,000000	0,955050
530,000000	0,946223
529,000000	0,931353
528,000000	0,908095
527,000000	0,883939
526,000000	0,869930
525,000000	0,869122
524,000000	0,874500
523,000000	0,876300
522,000000	0,868440
521,000000	0,850647
520,000000	0,828037
519,000000	0,808287
518,000000	0,796948
517,000000	0,795136
516,000000	0,800820
515,000000	0,809996
514,000000	0,816902
513,000000	0,817131
512,000000	0,811575
511,000000	0,804284
510,000000	0,796008
509,000000	0,784503
508,000000	0,771366
507,000000	0,762547
506,000000	0,759121
505,000000	0,753701
504,000000	0,740678
503,000000	0,725565
502,000000	0,719002
501,000000	0,723643
500,000000	0,732180
499,000000	0,736626
498,000000	0,734840
497,000000	0,728660
496,000000	0,719781
495,000000	0,708799
494,000000	0,696236
493,000000	0,683506
492,000000	0,673112
491,000000	0,666814
490,000000	0,663098
489,000000	0,657764
488,000000	0,647782
487,000000	0,633631
486,000000	0,617745
485,000000	0,602824
484,000000	0,591868
483,000000	0,586860
482,000000	0,585841
481,000000	0,583596
480,000000	0,576823
479,000000	0,567029
478,000000	0,557192
477,000000	0,547114
476,000000	0,533615
475,000000	0,514509
474,000000	0,492118
473,000000	0,473629
472,000000	0,466412
471,000000	0,470763
470,000000	0,478233
469,000000	0,480032
468,000000	0,476535
467,000000	0,474322
466,000000	0,475321
465,000000	0,474475
464,000000	0,468618
463,000000	0,461101
462,000000	0,454440
461,000000	0,444206
460,000000	0,425650
459,000000	0,403782
458,000000	0,391204
457,000000	0,395378
456,000000	0,411099
455,000000	0,425867
454,000000	0,431463
453,000000	0,429852
452,000000	0,428412
451,000000	0,430545
450,000000	0,432305
449,000000	0,428883
448,000000	0,421405
447,000000	0,414324
446,000000	0,408328
445,000000	0,400384
444,000000	0,390623
443,000000	0,384115
442,000000	0,384475
441,000000	0,389199
440,000000	0,392570
439,000000	0,390697
438,000000	0,383175
437,000000	0,372997
436,000000	0,365289
435,000000	0,362927
434,000000	0,362942
433,000000	0,360182
432,000000	0,354206
431,000000	0,348988
430,000000	0,345898
429,000000	0,341593
428,000000	0,333335
427,000000	0,321961
426,000000	0,309127
425,000000	0,295764
424,000000	0,283506
423,000000	0,272414
422,000000	0,257202
421,000000	0,232622
420,000000	0,204832
419,000000	0,190127
418,000000	0,197975
417,000000	0,219999
416,000000	0,239613
415,000000	0,248177
414,000000	0,247623
413,000000	0,242398
412,000000	0,235183
411,000000	0,228031
410,000000	0,222064
409,000000	0,216115
408,000000	0,208892
407,000000	0,201402
406,000000	0,195067
405,000000	0,189034
404,000000	0,181543
403,000000	0,172036
402,000000	0,159822
401,000000	0,143387
400,000000	0,123788
399,000000	0,106526
398,000000	0,096947
397,000000	0,095216
396,000000	0,097824
395,000000	0,101980
394,000000	0,106214
393,000000	0,108793
392,000000	0,108674
391,000000	0,106763
390,000000	0,104150
389,000000	0,100157
388,000000	0,093816
387,000000	0,085883
386,000000	0,078069
385,000000	0,071750
384,000000	0,068231
383,000000	0,068105
382,000000	0,069331
381,000000	0,068313
380,000000	0,063880
379,000000	0,057924
378,000000	0,051589
377,000000	0,044173
376,000000	0,036752
375,000000	0,032917
374,000000	0,033802
373,000000	0,035822
372,000000	0,035489
371,000000	0,033566
370,000000	0,032168
369,000000	0,031051
368,000000	0,029218
367,000000	0,027348
366,000000	0,026088
365,000000	0,024401
364,000000	0,021802
363,000000	0,019801
362,000000	0,018956
361,000000	0,017348
360,000000	0,014021
359,000000	0,011015
358,000000	0,010009
357,000000	0,009627
356,000000	0,008269
355,000000	0,006766
354,000000	0,005992
353,000000	0,005180
352,000000	0,003767
351,000000	0,003122
350,000000	0,003903
349,000000	0,004226
348,000000	0,002964
347,000000	0,001670
346,000000	0,001924
345,000000	0,002633
344,000000	0,002334
343,000000	0,002261
342,000000	0,003117
341,000000	0,003023
340,000000	0,001178
339,000000	0,000499
338,000000	0,000749
337,000000	0,001196
336,000000	0,000773
335,000000	0,000438
334,000000	0,000205
333,000000	0,000675
332,000000	0,001586
331,000000	0,001311
330,000000	0,001821
329,000000	0,002843
328,000000	0,001708
327,000000	0,000189
326,000000	0,000603
325,000000	0,001083
324,000000	0,001172
323,000000	0,000418
322,000000	0,001230
321,000000	0,001675
320,000000	0,000405
319,000000	0,001400
318,000000	0,001315
317,000000	0,001135
316,000000	0,000544
315,000000	0,000675
314,000000	0,000545
313,000000	0,000425
312,000000	0,001784
311,000000	0,002175
310,000000	0,001598
309,000000	0,001114
308,000000	0,000907
307,000000	0,002163
306,000000	0,001841
305,000000	0,001856
304,000000	0,001769
303,000000	0,000897
302,000000	0,000693
301,000000	0,000995
300,000000	0,001625
