PE IR       SUBTECH     SPECTRUM    ASCII       PEDS        4.00        
   -1
REf GaAs reference for support plate.ASC
25/06/17
10:49:51.00
25/06/17
10:49:51.00
Praktikum
Sample 030 By Praktikum date Dienstag, Juni 17 2025
300,000000
#HDR
-1
-1
#GR
cm-1
EGY
1.0
0.0
4000,000000
-1,000000
3701
8
7,209107
0,000188
#DATA
4000,000000	4,815726
3999,000000	4,813583
3998,000000	4,806987
3997,000000	4,798635
3996,000000	4,792453
3995,000000	4,790308
3994,000000	4,790627
3993,000000	4,791003
3992,000000	4,791701
3991,000000	4,795676
3990,000000	4,804767
3989,000000	4,816768
3988,000000	4,826851
3987,000000	4,831425
3986,000000	4,830276
3985,000000	4,825825
3984,000000	4,821408
3983,000000	4,819889
3982,000000	4,822260
3981,000000	4,826384
3980,000000	4,827664
3979,000000	4,822051
3978,000000	4,809435
3977,000000	4,794296
3976,000000	4,782816
3975,000000	4,779024
3974,000000	4,782761
3973,000000	4,790741
3972,000000	4,799614
3971,000000	4,808391
3970,000000	4,818413
3969,000000	4,830813
3968,000000	4,843374
3967,000000	4,849936
3966,000000	4,844121
3965,000000	4,825231
3964,000000	4,801187
3963,000000	4,784292
3962,000000	4,782257
3961,000000	4,792768
3960,000000	4,806923
3959,000000	4,817501
3958,000000	4,823512
3957,000000	4,827066
3956,000000	4,827377
3955,000000	4,818710
3954,000000	4,793637
3953,000000	4,748775
3952,000000	4,689989
3951,000000	4,634198
3950,000000	4,603168
3949,000000	4,608968
3948,000000	4,640295
3947,000000	4,665281
3946,000000	4,656728
3945,000000	4,618882
3944,000000	4,588345
3943,000000	4,603288
3942,000000	4,668950
3941,000000	4,755210
3940,000000	4,825651
3939,000000	4,862722
3938,000000	4,865064
3937,000000	4,830552
3936,000000	4,754401
3935,000000	4,646443
3934,000000	4,540826
3933,000000	4,480965
3932,000000	4,490557
3931,000000	4,556887
3930,000000	4,637680
3929,000000	4,684809
3928,000000	4,673888
3927,000000	4,621204
3926,000000	4,570906
3925,000000	4,559042
3924,000000	4,582450
3923,000000	4,603763
3922,000000	4,586457
3921,000000	4,525325
3920,000000	4,449339
3919,000000	4,402059
3918,000000	4,419031
3917,000000	4,509384
3916,000000	4,648675
3915,000000	4,790791
3914,000000	4,895160
3913,000000	4,949977
3912,000000	4,967349
3911,000000	4,956005
3910,000000	4,901146
3909,000000	4,773205
3908,000000	4,557769
3907,000000	4,280075
3906,000000	4,001968
3905,000000	3,789700
3904,000000	3,676505
3903,000000	3,653189
3902,000000	3,695289
3901,000000	3,795606
3900,000000	3,965340
3899,000000	4,198978
3898,000000	4,446415
3897,000000	4,625638
3896,000000	4,669383
3895,000000	4,569604
3894,000000	4,391357
3893,000000	4,244455
3892,000000	4,216385
3891,000000	4,302277
3890,000000	4,396349
3889,000000	4,382599
3888,000000	4,245593
3887,000000	4,089697
3886,000000	4,031535
3885,000000	4,081120
3884,000000	4,144685
3883,000000	4,142512
3882,000000	4,103912
3881,000000	4,130903
3880,000000	4,273519
3879,000000	4,460740
3878,000000	4,562811
3877,000000	4,514191
3876,000000	4,364184
3875,000000	4,203257
3874,000000	4,065361
3873,000000	3,923756
3872,000000	3,776187
3871,000000	3,690712
3870,000000	3,734564
3869,000000	3,876312
3868,000000	3,998544
3867,000000	4,016120
3866,000000	3,959652
3865,000000	3,932698
3864,000000	4,004728
3863,000000	4,163777
3862,000000	4,347294
3861,000000	4,488795
3860,000000	4,529448
3859,000000	4,416446
3858,000000	4,120424
3857,000000	3,670685
3856,000000	3,179531
3855,000000	2,819928
3854,000000	2,745070
3853,000000	2,994721
3852,000000	3,467624
3851,000000	3,987775
3850,000000	4,408844
3849,000000	4,665290
3848,000000	4,754811
3847,000000	4,704132
3846,000000	4,559648
3845,000000	4,379043
3844,000000	4,203535
3843,000000	4,035355
3842,000000	3,854349
3841,000000	3,660866
3840,000000	3,498273
3839,000000	3,428576
3838,000000	3,485584
3837,000000	3,645720
3836,000000	3,841021
3835,000000	4,006425
3834,000000	4,123890
3833,000000	4,223439
3832,000000	4,337744
3831,000000	4,458249
3830,000000	4,541798
3829,000000	4,562728
3828,000000	4,543233
3827,000000	4,515149
3826,000000	4,457468
3825,000000	4,301353
3824,000000	4,023073
3823,000000	3,719801
3822,000000	3,551325
3821,000000	3,588917
3820,000000	3,737364
3819,000000	3,840016
3818,000000	3,848922
3817,000000	3,868913
3816,000000	4,028910
3815,000000	4,336885
3814,000000	4,676317
3813,000000	4,911536
3812,000000	4,972324
3811,000000	4,856846
3810,000000	4,614351
3809,000000	4,343840
3808,000000	4,164333
3807,000000	4,127367
3806,000000	4,153583
3805,000000	4,100217
3804,000000	3,916518
3803,000000	3,715916
3802,000000	3,666631
3801,000000	3,817567
3800,000000	4,058990
3799,000000	4,250743
3798,000000	4,362542
3797,000000	4,468358
3796,000000	4,634184
3795,000000	4,842055
3794,000000	5,022593
3793,000000	5,130404
3792,000000	5,172204
3791,000000	5,177759
3790,000000	5,162769
3789,000000	5,123055
3788,000000	5,055570
3787,000000	4,979612
3786,000000	4,929067
3785,000000	4,918678
3784,000000	4,917675
3783,000000	4,872722
3782,000000	4,768493
3781,000000	4,660531
3780,000000	4,634937
3779,000000	4,729587
3778,000000	4,900814
3777,000000	5,064244
3776,000000	5,155370
3775,000000	5,148222
3774,000000	5,039034
3773,000000	4,845470
3772,000000	4,626430
3771,000000	4,469422
3770,000000	4,426848
3769,000000	4,471218
3768,000000	4,534319
3767,000000	4,587353
3766,000000	4,655036
3765,000000	4,747422
3764,000000	4,809303
3763,000000	4,768115
3762,000000	4,619590
3761,000000	4,444522
3760,000000	4,339104
3759,000000	4,338432
3758,000000	4,396623
3757,000000	4,418197
3756,000000	4,310644
3755,000000	4,040342
3754,000000	3,662443
3753,000000	3,298736
3752,000000	3,074415
3751,000000	3,050775
3750,000000	3,185978
3749,000000	3,344974
3748,000000	3,380335
3747,000000	3,254479
3746,000000	3,095443
3745,000000	3,099846
3744,000000	3,350707
3743,000000	3,739264
3742,000000	4,063581
3741,000000	4,182177
3740,000000	4,076588
3739,000000	3,814908
3738,000000	3,502471
3737,000000	3,251788
3736,000000	3,143849
3735,000000	3,194421
3734,000000	3,368864
3733,000000	3,625913
3732,000000	3,925347
3731,000000	4,200961
3730,000000	4,367965
3729,000000	4,387980
3728,000000	4,309921
3727,000000	4,225286
3726,000000	4,189538
3725,000000	4,199508
3724,000000	4,235841
3723,000000	4,298934
3722,000000	4,398165
3721,000000	4,528123
3720,000000	4,668134
3719,000000	4,794102
3718,000000	4,874344
3717,000000	4,859577
3716,000000	4,702272
3715,000000	4,405919
3714,000000	4,054049
3713,000000	3,777024
3712,000000	3,678643
3711,000000	3,781411
3710,000000	4,031743
3709,000000	4,340978
3708,000000	4,621270
3707,000000	4,804095
3706,000000	4,850855
3705,000000	4,771565
3704,000000	4,632773
3703,000000	4,533166
3702,000000	4,547140
3701,000000	4,672720
3700,000000	4,837451
3699,000000	4,961167
3698,000000	5,013785
3697,000000	5,009157
3696,000000	4,953344
3695,000000	4,820386
3694,000000	4,585686
3693,000000	4,269245
3692,000000	3,941016
3691,000000	3,696588
3690,000000	3,624374
3689,000000	3,768861
3688,000000	4,094299
3687,000000	4,487442
3686,000000	4,821120
3685,000000	5,023046
3684,000000	5,088835
3683,000000	5,046605
3682,000000	4,923796
3681,000000	4,732585
3680,000000	4,463681
3679,000000	4,105110
3678,000000	3,702895
3677,000000	3,392948
3676,000000	3,319794
3675,000000	3,485797
3674,000000	3,715035
3673,000000	3,812541
3672,000000	3,755623
3671,000000	3,707797
3670,000000	3,843513
3669,000000	4,184249
3668,000000	4,605010
3667,000000	4,960162
3666,000000	5,181698
3665,000000	5,283825
3664,000000	5,313949
3663,000000	5,311222
3662,000000	5,284508
3661,000000	5,209518
3660,000000	5,054803
3659,000000	4,830892
3658,000000	4,617818
3657,000000	4,515377
3656,000000	4,539544
3655,000000	4,574193
3654,000000	4,452882
3653,000000	4,112240
3652,000000	3,657464
3651,000000	3,281488
3650,000000	3,131910
3649,000000	3,246710
3648,000000	3,577586
3647,000000	4,027533
3646,000000	4,475054
3645,000000	4,814613
3644,000000	5,008109
3643,000000	5,090822
3642,000000	5,121828
3641,000000	5,134932
3640,000000	5,135838
3639,000000	5,121782
3638,000000	5,085512
3637,000000	5,017058
3636,000000	4,919178
3635,000000	4,806021
3634,000000	4,664750
3633,000000	4,439038
3632,000000	4,094448
3631,000000	3,712500
3630,000000	3,477777
3629,000000	3,538015
3628,000000	3,873224
3627,000000	4,314499
3626,000000	4,676194
3625,000000	4,859571
3624,000000	4,852317
3623,000000	4,687670
3622,000000	4,432194
3621,000000	4,188695
3620,000000	4,062141
3619,000000	4,094306
3618,000000	4,229038
3617,000000	4,355670
3616,000000	4,398840
3615,000000	4,369763
3614,000000	4,331818
3613,000000	4,323426
3612,000000	4,325283
3611,000000	4,304860
3610,000000	4,278428
3609,000000	4,309670
3608,000000	4,443495
3607,000000	4,653183
3606,000000	4,855644
3605,000000	4,974282
3604,000000	4,986675
3603,000000	4,926451
3602,000000	4,852006
3601,000000	4,806882
3600,000000	4,794587
3599,000000	4,785608
3598,000000	4,752483
3597,000000	4,701564
3596,000000	4,671831
3595,000000	4,699555
3594,000000	4,778520
3593,000000	4,848300
3592,000000	4,826914
3591,000000	4,672949
3590,000000	4,435645
3589,000000	4,239874
3588,000000	4,204261
3587,000000	4,357187
3586,000000	4,624493
3585,000000	4,892425
3584,000000	5,082032
3583,000000	5,178407
3582,000000	5,210471
3581,000000	5,215760
3580,000000	5,218096
3579,000000	5,224524
3578,000000	5,233284
3577,000000	5,243255
3576,000000	5,257019
3575,000000	5,274951
3574,000000	5,284909
3573,000000	5,255477
3572,000000	5,143541
3571,000000	4,923824
3570,000000	4,627313
3569,000000	4,350794
3568,000000	4,209351
3567,000000	4,261298
3566,000000	4,468083
3565,000000	4,726908
3564,000000	4,942646
3563,000000	5,078946
3562,000000	5,154585
3561,000000	5,206911
3560,000000	5,259161
3559,000000	5,311274
3558,000000	5,347627
3557,000000	5,349403
3556,000000	5,307966
3555,000000	5,236498
3554,000000	5,169855
3553,000000	5,143309
3552,000000	5,160801
3551,000000	5,185068
3550,000000	5,167070
3549,000000	5,092068
3548,000000	4,995934
3547,000000	4,937024
3546,000000	4,952474
3545,000000	5,038031
3544,000000	5,159708
3543,000000	5,277785
3542,000000	5,363700
3541,000000	5,404892
3540,000000	5,403523
3539,000000	5,374418
3538,000000	5,341950
3537,000000	5,330200
3536,000000	5,347408
3535,000000	5,377998
3534,000000	5,393064
3533,000000	5,372157
3532,000000	5,315928
3531,000000	5,241823
3530,000000	5,172137
3529,000000	5,124589
3528,000000	5,105151
3527,000000	5,105537
3526,000000	5,112802
3525,000000	5,125196
3524,000000	5,154886
3523,000000	5,210270
3522,000000	5,280126
3521,000000	5,341381
3520,000000	5,381074
3519,000000	5,404049
3518,000000	5,420646
3517,000000	5,433637
3516,000000	5,438687
3515,000000	5,430717
3514,000000	5,406223
3513,000000	5,364885
3512,000000	5,315573
3511,000000	5,278551
3510,000000	5,273052
3509,000000	5,297505
3508,000000	5,323912
3507,000000	5,318465
3506,000000	5,272012
3505,000000	5,211343
3504,000000	5,178805
3503,000000	5,198534
3502,000000	5,259648
3501,000000	5,328120
3500,000000	5,373764
3499,000000	5,387982
3498,000000	5,383080
3497,000000	5,378684
3496,000000	5,387316
3495,000000	5,408066
3494,000000	5,430145
3493,000000	5,441954
3492,000000	5,437823
3491,000000	5,419829
3490,000000	5,396680
3489,000000	5,380508
3488,000000	5,379193
3487,000000	5,387935
3486,000000	5,390719
3485,000000	5,374850
3484,000000	5,345198
3483,000000	5,322342
3482,000000	5,325113
3481,000000	5,355318
3480,000000	5,397487
3479,000000	5,431386
3478,000000	5,445897
3477,000000	5,444298
3476,000000	5,438860
3475,000000	5,439870
3474,000000	5,448737
3473,000000	5,459916
3472,000000	5,467294
3471,000000	5,468053
3470,000000	5,462826
3469,000000	5,455087
3468,000000	5,449450
3467,000000	5,447678
3466,000000	5,446337
3465,000000	5,440776
3464,000000	5,431992
3463,000000	5,427361
3462,000000	5,433270
3461,000000	5,448498
3460,000000	5,465777
3459,000000	5,478811
3458,000000	5,486572
3457,000000	5,491696
3456,000000	5,496612
3455,000000	5,501716
3454,000000	5,505959
3453,000000	5,506367
3452,000000	5,496156
3451,000000	5,466682
3450,000000	5,417048
3449,000000	5,363035
3448,000000	5,330933
3447,000000	5,336256
3446,000000	5,369099
3445,000000	5,404903
3444,000000	5,428607
3443,000000	5,444387
3442,000000	5,462603
3441,000000	5,484434
3440,000000	5,503008
3439,000000	5,514243
3438,000000	5,520559
3437,000000	5,525325
3436,000000	5,528704
3435,000000	5,529610
3434,000000	5,528572
3433,000000	5,527543
3432,000000	5,528396
3431,000000	5,532264
3430,000000	5,539027
3429,000000	5,547112
3428,000000	5,554409
3427,000000	5,558826
3426,000000	5,557247
3425,000000	5,545628
3424,000000	5,523224
3423,000000	5,497414
3422,000000	5,481698
3421,000000	5,486527
3420,000000	5,511358
3419,000000	5,545385
3418,000000	5,575505
3417,000000	5,594278
3416,000000	5,602336
3415,000000	5,605118
3414,000000	5,607546
3413,000000	5,611047
3412,000000	5,614621
3411,000000	5,617430
3410,000000	5,619642
3409,000000	5,621474
3408,000000	5,622601
3407,000000	5,622492
3406,000000	5,620939
3405,000000	5,618573
3404,000000	5,617178
3403,000000	5,618462
3402,000000	5,621439
3401,000000	5,622225
3400,000000	5,618335
3399,000000	5,612627
3398,000000	5,610510
3397,000000	5,612970
3396,000000	5,615124
3395,000000	5,613291
3394,000000	5,611322
3393,000000	5,617262
3392,000000	5,634137
3391,000000	5,655968
3390,000000	5,672954
3389,000000	5,679216
3388,000000	5,675790
3387,000000	5,668488
3386,000000	5,664005
3385,000000	5,666585
3384,000000	5,676088
3383,000000	5,688548
3382,000000	5,699238
3381,000000	5,705889
3380,000000	5,709366
3379,000000	5,711692
3378,000000	5,714012
3377,000000	5,716415
3376,000000	5,718873
3375,000000	5,721518
3374,000000	5,723940
3373,000000	5,724855
3372,000000	5,722846
3371,000000	5,717302
3370,000000	5,708767
3369,000000	5,698897
3368,000000	5,690362
3367,000000	5,686013
3366,000000	5,687074
3365,000000	5,692074
3364,000000	5,698300
3363,000000	5,704376
3362,000000	5,710813
3361,000000	5,717947
3360,000000	5,724263
3359,000000	5,727648
3358,000000	5,728089
3357,000000	5,728318
3356,000000	5,731483
3355,000000	5,738350
3354,000000	5,746878
3353,000000	5,754272
3352,000000	5,759254
3351,000000	5,762419
3350,000000	5,764913
3349,000000	5,767262
3348,000000	5,769438
3347,000000	5,771399
3346,000000	5,773052
3345,000000	5,774120
3344,000000	5,774551
3343,000000	5,774742
3342,000000	5,774660
3341,000000	5,772928
3340,000000	5,767874
3339,000000	5,760035
3338,000000	5,753046
3337,000000	5,751364
3336,000000	5,756913
3335,000000	5,767794
3334,000000	5,779834
3333,000000	5,789219
3332,000000	5,794160
3331,000000	5,794929
3330,000000	5,792923
3329,000000	5,789905
3328,000000	5,787755
3327,000000	5,788072
3326,000000	5,791343
3325,000000	5,796671
3324,000000	5,802695
3323,000000	5,808552
3322,000000	5,813744
3321,000000	5,817706
3320,000000	5,820230
3319,000000	5,821864
3318,000000	5,822897
3317,000000	5,822343
3316,000000	5,819136
3315,000000	5,814200
3314,000000	5,809882
3313,000000	5,807022
3312,000000	5,804203
3311,000000	5,800881
3310,000000	5,799878
3309,000000	5,804973
3308,000000	5,816381
3307,000000	5,829851
3306,000000	5,840404
3305,000000	5,846238
3304,000000	5,848912
3303,000000	5,850610
3302,000000	5,851870
3301,000000	5,851809
3300,000000	5,850099
3299,000000	5,848180
3298,000000	5,847849
3297,000000	5,848757
3296,000000	5,848293
3295,000000	5,844622
3294,000000	5,839289
3293,000000	5,836071
3292,000000	5,837497
3291,000000	5,843073
3290,000000	5,850637
3289,000000	5,858261
3288,000000	5,864615
3287,000000	5,868573
3286,000000	5,869535
3285,000000	5,868232
3284,000000	5,866568
3283,000000	5,866117
3282,000000	5,866685
3281,000000	5,866448
3280,000000	5,863490
3279,000000	5,857250
3278,000000	5,848713
3277,000000	5,839970
3276,000000	5,833923
3275,000000	5,833637
3274,000000	5,840639
3273,000000	5,853402
3272,000000	5,868005
3271,000000	5,880559
3270,000000	5,889009
3269,000000	5,893131
3268,000000	5,893873
3267,000000	5,893033
3266,000000	5,892606
3265,000000	5,893543
3264,000000	5,895203
3263,000000	5,896342
3262,000000	5,896430
3261,000000	5,895859
3260,000000	5,895079
3259,000000	5,893867
3258,000000	5,891474
3257,000000	5,887836
3256,000000	5,884824
3255,000000	5,885754
3254,000000	5,892623
3253,000000	5,903766
3252,000000	5,914987
3251,000000	5,922739
3250,000000	5,925294
3249,000000	5,921676
3248,000000	5,912010
3247,000000	5,899976
3246,000000	5,892609
3245,000000	5,895138
3244,000000	5,906045
3243,000000	5,918678
3242,000000	5,927544
3241,000000	5,931765
3240,000000	5,933313
3239,000000	5,933963
3238,000000	5,934612
3237,000000	5,935897
3236,000000	5,937964
3235,000000	5,940078
3234,000000	5,941322
3233,000000	5,941611
3232,000000	5,941609
3231,000000	5,942033
3230,000000	5,943507
3229,000000	5,946824
3228,000000	5,952561
3227,000000	5,960165
3226,000000	5,967632
3225,000000	5,972333
3224,000000	5,972273
3223,000000	5,967255
3222,000000	5,959662
3221,000000	5,954020
3220,000000	5,954317
3219,000000	5,960337
3218,000000	5,967046
3217,000000	5,969263
3216,000000	5,967150
3215,000000	5,965823
3214,000000	5,968996
3213,000000	5,974708
3212,000000	5,978792
3211,000000	5,980911
3210,000000	5,984899
3209,000000	5,993259
3208,000000	6,003902
3207,000000	6,012809
3206,000000	6,018212
3205,000000	6,021018
3204,000000	6,022365
3203,000000	6,022026
3202,000000	6,018746
3201,000000	6,011709
3200,000000	6,002356
3199,000000	5,995058
3198,000000	5,994691
3197,000000	6,002525
3196,000000	6,014874
3195,000000	6,026419
3194,000000	6,034403
3193,000000	6,039271
3192,000000	6,042527
3191,000000	6,044835
3190,000000	6,045725
3189,000000	6,044157
3188,000000	6,039795
3187,000000	6,034416
3186,000000	6,031549
3185,000000	6,033692
3184,000000	6,039649
3183,000000	6,044977
3182,000000	6,045180
3181,000000	6,039198
3180,000000	6,030676
3179,000000	6,026072
3178,000000	6,029991
3177,000000	6,041314
3176,000000	6,054321
3175,000000	6,063889
3174,000000	6,069086
3173,000000	6,071662
3172,000000	6,072938
3171,000000	6,073340
3170,000000	6,073736
3169,000000	6,075280
3168,000000	6,078045
3167,000000	6,081121
3166,000000	6,083943
3165,000000	6,086648
3164,000000	6,089259
3163,000000	6,091542
3162,000000	6,093621
3161,000000	6,095921
3160,000000	6,098467
3159,000000	6,100909
3158,000000	6,103126
3157,000000	6,105193
3156,000000	6,106925
3155,000000	6,108128
3154,000000	6,109187
3153,000000	6,110799
3152,000000	6,113145
3151,000000	6,115871
3150,000000	6,118705
3149,000000	6,121577
3148,000000	6,124212
3147,000000	6,126179
3146,000000	6,127369
3145,000000	6,128112
3144,000000	6,128934
3143,000000	6,130418
3142,000000	6,133019
3141,000000	6,136660
3140,000000	6,140635
3139,000000	6,143931
3138,000000	6,145130
3137,000000	6,142301
3136,000000	6,134552
3135,000000	6,124763
3134,000000	6,119422
3133,000000	6,123567
3132,000000	6,135463
3131,000000	6,147531
3130,000000	6,153056
3129,000000	6,151513
3128,000000	6,147140
3127,000000	6,143569
3126,000000	6,140919
3125,000000	6,137812
3124,000000	6,134679
3123,000000	6,133816
3122,000000	6,136191
3121,000000	6,139449
3120,000000	6,140118
3119,000000	6,137567
3118,000000	6,134845
3117,000000	6,135717
3116,000000	6,141563
3115,000000	6,151136
3114,000000	6,161876
3113,000000	6,171069
3112,000000	6,176871
3111,000000	6,179460
3110,000000	6,180839
3109,000000	6,182931
3108,000000	6,185972
3107,000000	6,188640
3106,000000	6,188917
3105,000000	6,184810
3104,000000	6,176072
3103,000000	6,166150
3102,000000	6,160996
3101,000000	6,163806
3100,000000	6,171311
3099,000000	6,176818
3098,000000	6,177274
3097,000000	6,176173
3096,000000	6,179402
3095,000000	6,189344
3094,000000	6,203199
3093,000000	6,216046
3092,000000	6,224553
3091,000000	6,228369
3090,000000	6,229051
3089,000000	6,228465
3088,000000	6,227954
3087,000000	6,228064
3086,000000	6,228218
3085,000000	6,226725
3084,000000	6,222202
3083,000000	6,215375
3082,000000	6,209089
3081,000000	6,206303
3080,000000	6,208459
3079,000000	6,215495
3078,000000	6,226150
3077,000000	6,237829
3076,000000	6,247382
3075,000000	6,253228
3074,000000	6,256206
3073,000000	6,257702
3072,000000	6,257396
3071,000000	6,253580
3070,000000	6,245188
3069,000000	6,233069
3068,000000	6,220065
3067,000000	6,210499
3066,000000	6,208498
3065,000000	6,215234
3064,000000	6,227660
3063,000000	6,240620
3062,000000	6,250075
3061,000000	6,254152
3060,000000	6,252544
3059,000000	6,246933
3058,000000	6,241665
3057,000000	6,241961
3056,000000	6,250021
3055,000000	6,262949
3054,000000	6,274730
3053,000000	6,280358
3052,000000	6,278815
3051,000000	6,273548
3050,000000	6,270162
3049,000000	6,272584
3048,000000	6,280453
3047,000000	6,290048
3046,000000	6,297725
3045,000000	6,302299
3044,000000	6,304672
3043,000000	6,306149
3042,000000	6,307452
3041,000000	6,308525
3040,000000	6,308600
3039,000000	6,306547
3038,000000	6,301705
3037,000000	6,294308
3036,000000	6,285005
3035,000000	6,274318
3034,000000	6,263419
3033,000000	6,255517
3032,000000	6,255090
3031,000000	6,264097
3030,000000	6,278654
3029,000000	6,290925
3028,000000	6,295514
3027,000000	6,293536
3026,000000	6,289993
3025,000000	6,288074
3024,000000	6,287321
3023,000000	6,286254
3022,000000	6,284459
3021,000000	6,281756
3020,000000	6,277461
3019,000000	6,271646
3018,000000	6,266056
3017,000000	6,262559
3016,000000	6,261433
3015,000000	6,262057
3014,000000	6,264751
3013,000000	6,270983
3012,000000	6,281919
3011,000000	6,297165
3010,000000	6,314313
3009,000000	6,329466
3008,000000	6,339124
3007,000000	6,342801
3006,000000	6,343652
3005,000000	6,345791
3004,000000	6,350995
3003,000000	6,358030
3002,000000	6,364647
3001,000000	6,369403
3000,000000	6,372028
2999,000000	6,372773
2998,000000	6,371843
2997,000000	6,369442
2996,000000	6,366440
2995,000000	6,364673
2994,000000	6,365725
2993,000000	6,369157
2992,000000	6,372578
2991,000000	6,373891
2990,000000	6,373150
2989,000000	6,371988
2988,000000	6,371839
2987,000000	6,372939
2986,000000	6,374500
2985,000000	6,375293
2984,000000	6,374423
2983,000000	6,371889
2982,000000	6,368336
2981,000000	6,364300
2980,000000	6,359968
2979,000000	6,355458
2978,000000	6,350647
2977,000000	6,344953
2976,000000	6,338086
2975,000000	6,330935
2974,000000	6,324733
2973,000000	6,319176
2972,000000	6,312382
2971,000000	6,302985
2970,000000	6,291421
2969,000000	6,279036
2968,000000	6,266935
2967,000000	6,256004
2966,000000	6,246880
2965,000000	6,239335
2964,000000	6,232495
2963,000000	6,226200
2962,000000	6,221311
2961,000000	6,218310
2960,000000	6,216514
2959,000000	6,215124
2958,000000	6,214146
2957,000000	6,213739
2956,000000	6,213597
2955,000000	6,213580
2954,000000	6,214090
2953,000000	6,215179
2952,000000	6,215956
2951,000000	6,215512
2950,000000	6,213731
2949,000000	6,210786
2948,000000	6,206596
2947,000000	6,201261
2946,000000	6,195214
2945,000000	6,188362
2944,000000	6,179888
2943,000000	6,169392
2942,000000	6,157515
2941,000000	6,144926
2940,000000	6,131589
2939,000000	6,117608
2938,000000	6,103888
2937,000000	6,091297
2936,000000	6,079875
2935,000000	6,069427
2934,000000	6,060100
2933,000000	6,051757
2932,000000	6,043653
2931,000000	6,035419
2930,000000	6,027712
2929,000000	6,021338
2928,000000	6,016534
2927,000000	6,013802
2926,000000	6,014496
2925,000000	6,019797
2924,000000	6,029579
2923,000000	6,042936
2922,000000	6,059160
2921,000000	6,077582
2920,000000	6,097269
2919,000000	6,117517
2918,000000	6,138169
2917,000000	6,158840
2916,000000	6,178530
2915,000000	6,196553
2914,000000	6,213144
2913,000000	6,228670
2912,000000	6,242963
2911,000000	6,255964
2910,000000	6,268177
2909,000000	6,279852
2908,000000	6,290534
2907,000000	6,300060
2906,000000	6,309225
2905,000000	6,318720
2904,000000	6,328158
2903,000000	6,336828
2902,000000	6,344770
2901,000000	6,352404
2900,000000	6,359761
2899,000000	6,366750
2898,000000	6,373587
2897,000000	6,380312
2896,000000	6,386502
2895,000000	6,392002
2894,000000	6,397345
2893,000000	6,402917
2892,000000	6,408366
2891,000000	6,413288
2890,000000	6,417782
2889,000000	6,421867
2888,000000	6,425166
2887,000000	6,427692
2886,000000	6,430122
2885,000000	6,432699
2884,000000	6,434689
2883,000000	6,435482
2882,000000	6,435416
2881,000000	6,434917
2880,000000	6,433703
2879,000000	6,431473
2878,000000	6,428547
2877,000000	6,425120
2876,000000	6,420724
2875,000000	6,415085
2874,000000	6,408712
2873,000000	6,401943
2872,000000	6,394228
2871,000000	6,385027
2870,000000	6,374621
2869,000000	6,363266
2868,000000	6,350469
2867,000000	6,335945
2866,000000	6,320677
2865,000000	6,306166
2864,000000	6,293311
2863,000000	6,282658
2862,000000	6,275034
2861,000000	6,271133
2860,000000	6,270885
2859,000000	6,273850
2858,000000	6,279713
2857,000000	6,287923
2856,000000	6,297616
2855,000000	6,308415
2854,000000	6,320588
2853,000000	6,333972
2852,000000	6,347611
2851,000000	6,360992
2850,000000	6,374743
2849,000000	6,389440
2848,000000	6,404627
2847,000000	6,419696
2846,000000	6,434815
2845,000000	6,450197
2844,000000	6,465266
2843,000000	6,479328
2842,000000	6,492437
2841,000000	6,504842
2840,000000	6,516305
2839,000000	6,526630
2838,000000	6,536161
2837,000000	6,545106
2836,000000	6,553118
2835,000000	6,560154
2834,000000	6,566972
2833,000000	6,574083
2832,000000	6,580963
2831,000000	6,586970
2830,000000	6,592305
2829,000000	6,597430
2828,000000	6,602282
2827,000000	6,606735
2826,000000	6,611100
2825,000000	6,615526
2824,000000	6,619612
2823,000000	6,623190
2822,000000	6,626756
2821,000000	6,630577
2820,000000	6,634189
2819,000000	6,637305
2818,000000	6,640377
2817,000000	6,643678
2816,000000	6,646714
2815,000000	6,649142
2814,000000	6,651417
2813,000000	6,653889
2812,000000	6,656171
2811,000000	6,657999
2810,000000	6,659848
2809,000000	6,662019
2808,000000	6,664010
2807,000000	6,665454
2806,000000	6,666794
2805,000000	6,668436
2804,000000	6,670106
2803,000000	6,671662
2802,000000	6,673569
2801,000000	6,675900
2800,000000	6,677876
2799,000000	6,679106
2798,000000	6,680340
2797,000000	6,682285
2796,000000	6,684601
2795,000000	6,686776
2794,000000	6,689039
2793,000000	6,691661
2792,000000	6,694327
2791,000000	6,696950
2790,000000	6,700154
2789,000000	6,704201
2788,000000	6,708333
2787,000000	6,711934
2786,000000	6,715394
2785,000000	6,719140
2784,000000	6,722852
2783,000000	6,726352
2782,000000	6,730193
2781,000000	6,734520
2780,000000	6,738387
2779,000000	6,741122
2778,000000	6,743389
2777,000000	6,746035
2776,000000	6,748832
2775,000000	6,751249
2774,000000	6,753488
2773,000000	6,755803
2772,000000	6,757748
2771,000000	6,759050
2770,000000	6,760389
2769,000000	6,762345
2768,000000	6,764382
2767,000000	6,765773
2766,000000	6,766741
2765,000000	6,767836
2764,000000	6,769000
2763,000000	6,770080
2762,000000	6,771421
2761,000000	6,773126
2760,000000	6,774563
2759,000000	6,775420
2758,000000	6,776377
2757,000000	6,777928
2756,000000	6,779452
2755,000000	6,780309
2754,000000	6,780952
2753,000000	6,782086
2752,000000	6,783588
2751,000000	6,785079
2750,000000	6,786716
2749,000000	6,788569
2748,000000	6,790111
2747,000000	6,791143
2746,000000	6,792341
2745,000000	6,794079
2744,000000	6,795647
2743,000000	6,796481
2742,000000	6,797201
2741,000000	6,798539
2740,000000	6,800179
2739,000000	6,801594
2738,000000	6,803101
2737,000000	6,805092
2736,000000	6,807084
2735,000000	6,808501
2734,000000	6,809641
2733,000000	6,810988
2732,000000	6,812355
2731,000000	6,813537
2730,000000	6,814984
2729,000000	6,816973
2728,000000	6,818955
2727,000000	6,820550
2726,000000	6,822307
2725,000000	6,824627
2724,000000	6,826833
2723,000000	6,828214
2722,000000	6,829165
2721,000000	6,830403
2720,000000	6,831903
2719,000000	6,833445
2718,000000	6,835354
2717,000000	6,837801
2716,000000	6,840184
2715,000000	6,842052
2714,000000	6,843837
2713,000000	6,845934
2712,000000	6,847905
2711,000000	6,849415
2710,000000	6,850998
2709,000000	6,853080
2708,000000	6,855127
2707,000000	6,856616
2706,000000	6,857983
2705,000000	6,859787
2704,000000	6,861821
2703,000000	6,863838
2702,000000	6,866200
2701,000000	6,869010
2700,000000	6,871534
2699,000000	6,873338
2698,000000	6,875105
2697,000000	6,877509
2696,000000	6,880231
2695,000000	6,882837
2694,000000	6,885611
2693,000000	6,888668
2692,000000	6,891264
2691,000000	6,892927
2690,000000	6,894341
2689,000000	6,896222
2688,000000	6,898227
2687,000000	6,899807
2686,000000	6,901157
2685,000000	6,902490
2684,000000	6,903378
2683,000000	6,903703
2682,000000	6,904286
2681,000000	6,905695
2680,000000	6,907323
2679,000000	6,908473
2678,000000	6,909383
2677,000000	6,910389
2676,000000	6,911138
2675,000000	6,911470
2674,000000	6,912052
2673,000000	6,913272
2672,000000	6,914500
2671,000000	6,915276
2670,000000	6,916150
2669,000000	6,917516
2668,000000	6,918736
2667,000000	6,919296
2666,000000	6,919737
2665,000000	6,920544
2664,000000	6,921278
2663,000000	6,921673
2662,000000	6,922445
2661,000000	6,924025
2660,000000	6,925646
2659,000000	6,926666
2658,000000	6,927632
2657,000000	6,929050
2656,000000	6,930313
2655,000000	6,930951
2654,000000	6,931748
2653,000000	6,933489
2652,000000	6,935659
2651,000000	6,937483
2650,000000	6,939179
2649,000000	6,941050
2648,000000	6,942472
2647,000000	6,942968
2646,000000	6,943301
2645,000000	6,944342
2644,000000	6,945772
2643,000000	6,946980
2642,000000	6,948275
2641,000000	6,950098
2640,000000	6,952019
2639,000000	6,953594
2638,000000	6,955260
2637,000000	6,957389
2636,000000	6,959419
2635,000000	6,960903
2634,000000	6,962389
2633,000000	6,964241
2632,000000	6,965744
2631,000000	6,966450
2630,000000	6,967273
2629,000000	6,969083
2628,000000	6,971253
2627,000000	6,972825
2626,000000	6,974064
2625,000000	6,975658
2624,000000	6,977364
2623,000000	6,978662
2622,000000	6,979873
2621,000000	6,981419
2620,000000	6,982885
2619,000000	6,983896
2618,000000	6,985046
2617,000000	6,986878
2616,000000	6,988838
2615,000000	6,990303
2614,000000	6,991704
2613,000000	6,993601
2612,000000	6,995571
2611,000000	6,997082
2610,000000	6,998506
2609,000000	7,000215
2608,000000	7,001661
2607,000000	7,002418
2606,000000	7,003169
2605,000000	7,004579
2604,000000	7,006075
2603,000000	7,006830
2602,000000	7,006994
2601,000000	7,007030
2600,000000	7,006784
2599,000000	7,006223
2598,000000	7,006036
2597,000000	7,006545
2596,000000	7,007015
2595,000000	7,007000
2594,000000	7,007231
2593,000000	7,008205
2592,000000	7,009107
2591,000000	7,009245
2590,000000	7,009335
2589,000000	7,010176
2588,000000	7,011215
2587,000000	7,011684
2586,000000	7,012070
2585,000000	7,013159
2584,000000	7,014644
2583,000000	7,015909
2582,000000	7,017240
2581,000000	7,019045
2580,000000	7,020828
2579,000000	7,022109
2578,000000	7,023410
2577,000000	7,025224
2576,000000	7,026938
2575,000000	7,027894
2574,000000	7,028540
2573,000000	7,029438
2572,000000	7,030183
2571,000000	7,030383
2570,000000	7,030716
2569,000000	7,031829
2568,000000	7,033186
2567,000000	7,034070
2566,000000	7,034762
2565,000000	7,035669
2564,000000	7,036379
2563,000000	7,036645
2562,000000	7,037212
2561,000000	7,038576
2560,000000	7,040010
2559,000000	7,040913
2558,000000	7,041910
2557,000000	7,043507
2556,000000	7,044845
2555,000000	7,045094
2554,000000	7,044928
2553,000000	7,045376
2552,000000	7,046247
2551,000000	7,046951
2550,000000	7,047741
2549,000000	7,048887
2548,000000	7,049707
2547,000000	7,049761
2546,000000	7,049969
2545,000000	7,051245
2544,000000	7,052975
2543,000000	7,054115
2542,000000	7,054831
2541,000000	7,055814
2540,000000	7,056939
2539,000000	7,057859
2538,000000	7,058974
2537,000000	7,060605
2536,000000	7,062136
2535,000000	7,063077
2534,000000	7,064049
2533,000000	7,065636
2532,000000	7,067300
2531,000000	7,068489
2530,000000	7,069686
2529,000000	7,071280
2528,000000	7,072531
2527,000000	7,072865
2526,000000	7,073044
2525,000000	7,073876
2524,000000	7,074881
2523,000000	7,075427
2522,000000	7,076012
2521,000000	7,077203
2520,000000	7,078418
2519,000000	7,079004
2518,000000	7,079391
2517,000000	7,079981
2516,000000	7,080118
2515,000000	7,079388
2514,000000	7,078776
2513,000000	7,079194
2512,000000	7,079993
2511,000000	7,080183
2510,000000	7,079998
2509,000000	7,079973
2508,000000	7,079707
2507,000000	7,078880
2506,000000	7,078349
2505,000000	7,078849
2504,000000	7,079678
2503,000000	7,079978
2502,000000	7,080161
2501,000000	7,080790
2500,000000	7,081242
2499,000000	7,080881
2498,000000	7,080376
2497,000000	7,080467
2496,000000	7,080571
2495,000000	7,079999
2494,000000	7,079422
2493,000000	7,079650
2492,000000	7,080107
2491,000000	7,079944
2490,000000	7,079609
2489,000000	7,079825
2488,000000	7,080109
2487,000000	7,079742
2486,000000	7,079188
2485,000000	7,079120
2484,000000	7,079066
2483,000000	7,078438
2482,000000	7,077855
2481,000000	7,078052
2480,000000	7,078526
2479,000000	7,078625
2478,000000	7,078902
2477,000000	7,079981
2476,000000	7,081159
2475,000000	7,081596
2474,000000	7,081779
2473,000000	7,082395
2472,000000	7,082864
2471,000000	7,082506
2470,000000	7,082051
2469,000000	7,082440
2468,000000	7,083172
2467,000000	7,083359
2466,000000	7,083395
2465,000000	7,084003
2464,000000	7,084659
2463,000000	7,084556
2462,000000	7,084259
2461,000000	7,084787
2460,000000	7,085914
2459,000000	7,086814
2458,000000	7,087517
2457,000000	7,088317
2456,000000	7,088700
2455,000000	7,088336
2454,000000	7,088199
2453,000000	7,089222
2452,000000	7,090757
2451,000000	7,091781
2450,000000	7,092634
2449,000000	7,094045
2448,000000	7,095448
2447,000000	7,095922
2446,000000	7,095959
2445,000000	7,096708
2444,000000	7,098168
2443,000000	7,099586
2442,000000	7,100898
2441,000000	7,102345
2440,000000	7,103422
2439,000000	7,103625
2438,000000	7,103558
2437,000000	7,104015
2436,000000	7,104715
2435,000000	7,105109
2434,000000	7,105518
2433,000000	7,106258
2432,000000	7,106608
2431,000000	7,105995
2430,000000	7,105206
2429,000000	7,105116
2428,000000	7,105218
2427,000000	7,104787
2426,000000	7,104429
2425,000000	7,105015
2424,000000	7,106036
2423,000000	7,106498
2422,000000	7,106537
2421,000000	7,106724
2420,000000	7,106734
2419,000000	7,106147
2418,000000	7,105629
2417,000000	7,105844
2416,000000	7,106133
2415,000000	7,105716
2414,000000	7,105227
2413,000000	7,105541
2412,000000	7,106055
2411,000000	7,105725
2410,000000	7,104929
2409,000000	7,104668
2408,000000	7,104788
2407,000000	7,104608
2406,000000	7,104505
2405,000000	7,105206
2404,000000	7,106227
2403,000000	7,106602
2402,000000	7,106522
2401,000000	7,106710
2400,000000	7,106858
2399,000000	7,106279
2398,000000	7,105439
2397,000000	7,105260
2396,000000	7,105422
2395,000000	7,104872
2394,000000	7,103348
2393,000000	7,100790
2392,000000	7,095752
2391,000000	7,085424
2390,000000	7,066983
2389,000000	7,036660
2388,000000	6,988129
2387,000000	6,913835
2386,000000	6,806583
2385,000000	6,660983
2384,000000	6,472740
2383,000000	6,240188
2382,000000	5,967402
2381,000000	5,662781
2380,000000	5,337075
2379,000000	5,001008
2378,000000	4,664850
2377,000000	4,337348
2376,000000	4,023682
2375,000000	3,726393
2374,000000	3,447481
2373,000000	3,189286
2372,000000	2,952712
2371,000000	2,737652
2370,000000	2,544284
2369,000000	2,373312
2368,000000	2,224715
2367,000000	2,096660
2366,000000	1,988324
2365,000000	1,900641
2364,000000	1,834146
2363,000000	1,787581
2362,000000	1,758946
2361,000000	1,749160
2360,000000	1,761584
2359,000000	1,799086
2358,000000	1,864335
2357,000000	1,960673
2356,000000	2,093174
2355,000000	2,268230
2354,000000	2,495819
2353,000000	2,787824
2352,000000	3,136614
2351,000000	3,484934
2350,000000	3,725522
2349,000000	3,760707
2348,000000	3,578954
2347,000000	3,272955
2346,000000	2,972445
2345,000000	2,757675
2344,000000	2,634433
2343,000000	2,571800
2342,000000	2,545323
2341,000000	2,543250
2340,000000	2,556808
2339,000000	2,578014
2338,000000	2,604918
2337,000000	2,637348
2336,000000	2,670103
2335,000000	2,694595
2334,000000	2,707327
2333,000000	2,714465
2332,000000	2,728783
2331,000000	2,763550
2330,000000	2,825572
2329,000000	2,909755
2328,000000	3,001093
2327,000000	3,084554
2326,000000	3,154335
2325,000000	3,215673
2324,000000	3,280199
2323,000000	3,361053
2322,000000	3,467712
2321,000000	3,602047
2320,000000	3,758610
2319,000000	3,927702
2318,000000	4,096980
2317,000000	4,252253
2316,000000	4,383159
2315,000000	4,491313
2314,000000	4,589910
2313,000000	4,693370
2312,000000	4,808258
2311,000000	4,934045
2310,000000	5,067791
2309,000000	5,205914
2308,000000	5,344370
2307,000000	5,480195
2306,000000	5,611284
2305,000000	5,733738
2304,000000	5,842615
2303,000000	5,937083
2302,000000	6,021863
2301,000000	6,101976
2300,000000	6,178230
2299,000000	6,249749
2298,000000	6,317356
2297,000000	6,382160
2296,000000	6,443753
2295,000000	6,501919
2294,000000	6,558213
2293,000000	6,613537
2292,000000	6,666560
2291,000000	6,716542
2290,000000	6,765218
2289,000000	6,814018
2288,000000	6,861746
2287,000000	6,906485
2286,000000	6,947177
2285,000000	6,981115
2284,000000	7,003213
2283,000000	7,010843
2282,000000	7,007213
2281,000000	6,998121
2280,000000	6,987103
2279,000000	6,975862
2278,000000	6,966404
2277,000000	6,959778
2276,000000	6,954820
2275,000000	6,950490
2274,000000	6,947934
2273,000000	6,948086
2272,000000	6,949473
2271,000000	6,950481
2270,000000	6,951863
2269,000000	6,954843
2268,000000	6,958791
2267,000000	6,962903
2266,000000	6,968098
2265,000000	6,975143
2264,000000	6,982875
2263,000000	6,990262
2262,000000	6,998208
2261,000000	7,007326
2260,000000	7,016154
2259,000000	7,023585
2258,000000	7,030845
2257,000000	7,039048
2256,000000	7,047010
2255,000000	7,053630
2254,000000	7,060112
2253,000000	7,067657
2252,000000	7,075111
2251,000000	7,081166
2250,000000	7,086708
2249,000000	7,092806
2248,000000	7,098510
2247,000000	7,102820
2246,000000	7,106725
2245,000000	7,111124
2244,000000	7,114891
2243,000000	7,117162
2242,000000	7,119343
2241,000000	7,122655
2240,000000	7,125906
2239,000000	7,127864
2238,000000	7,129618
2237,000000	7,132302
2236,000000	7,134758
2235,000000	7,135775
2234,000000	7,136493
2233,000000	7,138293
2232,000000	7,140378
2231,000000	7,141716
2230,000000	7,143186
2229,000000	7,145577
2228,000000	7,147625
2227,000000	7,148346
2226,000000	7,149060
2225,000000	7,150844
2224,000000	7,152201
2223,000000	7,151641
2222,000000	7,150373
2221,000000	7,150026
2220,000000	7,149956
2219,000000	7,149141
2218,000000	7,148573
2217,000000	7,149228
2216,000000	7,149876
2215,000000	7,149294
2214,000000	7,148602
2213,000000	7,149006
2212,000000	7,149378
2211,000000	7,148482
2210,000000	7,147440
2209,000000	7,147577
2208,000000	7,147985
2207,000000	7,147669
2206,000000	7,147838
2205,000000	7,149556
2204,000000	7,151241
2203,000000	7,151107
2202,000000	7,150085
2201,000000	7,149910
2200,000000	7,150310
2199,000000	7,150473
2198,000000	7,151157
2197,000000	7,152910
2196,000000	7,154296
2195,000000	7,154271
2194,000000	7,154249
2193,000000	7,155502
2192,000000	7,156754
2191,000000	7,156636
2190,000000	7,156304
2189,000000	7,157125
2188,000000	7,158125
2187,000000	7,158139
2186,000000	7,158241
2185,000000	7,159498
2184,000000	7,160598
2183,000000	7,160234
2182,000000	7,159573
2181,000000	7,159929
2180,000000	7,160234
2179,000000	7,159354
2178,000000	7,158486
2177,000000	7,158762
2176,000000	7,158827
2175,000000	7,157421
2174,000000	7,155921
2173,000000	7,155709
2172,000000	7,155436
2171,000000	7,153635
2170,000000	7,151692
2169,000000	7,151380
2168,000000	7,151782
2167,000000	7,151330
2166,000000	7,150604
2165,000000	7,150383
2164,000000	7,149399
2163,000000	7,146824
2162,000000	7,144647
2161,000000	7,144668
2160,000000	7,145448
2159,000000	7,145039
2158,000000	7,144287
2157,000000	7,144565
2156,000000	7,144674
2155,000000	7,143211
2154,000000	7,141612
2153,000000	7,141739
2152,000000	7,142503
2151,000000	7,142023
2150,000000	7,140945
2149,000000	7,140617
2148,000000	7,140134
2147,000000	7,138330
2146,000000	7,136638
2145,000000	7,136772
2144,000000	7,137491
2143,000000	7,136658
2142,000000	7,134684
2141,000000	7,132930
2140,000000	7,130762
2139,000000	7,127240
2138,000000	7,123979
2137,000000	7,123268
2136,000000	7,124833
2135,000000	7,127030
2134,000000	7,129491
2133,000000	7,132138
2132,000000	7,133567
2131,000000	7,133062
2130,000000	7,132317
2129,000000	7,132733
2128,000000	7,133014
2127,000000	7,131796
2126,000000	7,130348
2125,000000	7,130197
2124,000000	7,130347
2123,000000	7,129538
2122,000000	7,128895
2121,000000	7,129639
2120,000000	7,130260
2119,000000	7,128683
2118,000000	7,125391
2117,000000	7,122140
2116,000000	7,119769
2115,000000	7,119173
2114,000000	7,121849
2113,000000	7,127116
2112,000000	7,131443
2111,000000	7,132768
2110,000000	7,132964
2109,000000	7,133976
2108,000000	7,134751
2107,000000	7,134242
2106,000000	7,134087
2105,000000	7,135509
2104,000000	7,136713
2103,000000	7,136260
2102,000000	7,135892
2101,000000	7,137219
2100,000000	7,138640
2099,000000	7,138515
2098,000000	7,138276
2097,000000	7,139559
2096,000000	7,141023
2095,000000	7,140668
2094,000000	7,138294
2093,000000	7,133587
2092,000000	7,125725
2091,000000	7,117427
2090,000000	7,114990
2089,000000	7,120796
2088,000000	7,129709
2087,000000	7,135910
2086,000000	7,139464
2085,000000	7,142701
2084,000000	7,144853
2083,000000	7,144521
2082,000000	7,143444
2081,000000	7,143359
2080,000000	7,142637
2079,000000	7,140046
2078,000000	7,138160
2077,000000	7,139085
2076,000000	7,140579
2075,000000	7,140463
2074,000000	7,140806
2073,000000	7,143654
2072,000000	7,146731
2071,000000	7,147350
2070,000000	7,145658
2069,000000	7,139716
2068,000000	7,123796
2067,000000	7,098643
2066,000000	7,078216
2065,000000	7,077358
2064,000000	7,095036
2063,000000	7,116725
2062,000000	7,131423
2061,000000	7,139152
2060,000000	7,143932
2059,000000	7,147504
2058,000000	7,150443
2057,000000	7,153233
2056,000000	7,154916
2055,000000	7,154637
2054,000000	7,154196
2053,000000	7,155648
2052,000000	7,157714
2051,000000	7,158084
2050,000000	7,157302
2049,000000	7,156900
2048,000000	7,155887
2047,000000	7,152690
2046,000000	7,147572
2045,000000	7,139703
2044,000000	7,126252
2043,000000	7,109562
2042,000000	7,100606
2041,000000	7,108278
2040,000000	7,127838
2039,000000	7,146245
2038,000000	7,156820
2037,000000	7,162106
2036,000000	7,165257
2035,000000	7,166380
2034,000000	7,166480
2033,000000	7,167744
2032,000000	7,169445
2031,000000	7,168989
2030,000000	7,166855
2029,000000	7,165807
2028,000000	7,165970
2027,000000	7,165387
2026,000000	7,164299
2025,000000	7,164320
2024,000000	7,164716
2023,000000	7,163078
2022,000000	7,156719
2021,000000	7,139836
2020,000000	7,105711
2019,000000	7,060023
2018,000000	7,027198
2017,000000	7,031747
2016,000000	7,072364
2015,000000	7,122880
2014,000000	7,159028
2013,000000	7,175657
2012,000000	7,179378
2011,000000	7,176290
2010,000000	7,170994
2009,000000	7,168550
2008,000000	7,170710
2007,000000	7,174591
2006,000000	7,178092
2005,000000	7,182060
2004,000000	7,185631
2003,000000	7,185302
2002,000000	7,180546
2001,000000	7,175096
2000,000000	7,171553
1999,000000	7,170352
1998,000000	7,172547
1997,000000	7,173138
1996,000000	7,151818
1995,000000	7,086998
1994,000000	6,988966
1993,000000	6,907425
1992,000000	6,890164
1991,000000	6,936945
1990,000000	7,006043
1989,000000	7,061498
1988,000000	7,099822
1987,000000	7,132533
1986,000000	7,160946
1985,000000	7,178034
1984,000000	7,183480
1983,000000	7,184489
1982,000000	7,185483
1981,000000	7,185630
1980,000000	7,184596
1979,000000	7,183791
1978,000000	7,183271
1977,000000	7,182220
1976,000000	7,181599
1975,000000	7,182752
1974,000000	7,184758
1973,000000	7,185231
1972,000000	7,178910
1971,000000	7,153385
1970,000000	7,096427
1969,000000	7,018161
1968,000000	6,959014
1967,000000	6,959151
1966,000000	7,017792
1965,000000	7,092973
1964,000000	7,143666
1963,000000	7,162047
1962,000000	7,164103
1961,000000	7,163996
1960,000000	7,165366
1959,000000	7,166486
1958,000000	7,163808
1957,000000	7,155517
1956,000000	7,147271
1955,000000	7,149029
1954,000000	7,162071
1953,000000	7,176560
1952,000000	7,184536
1951,000000	7,185991
1950,000000	7,179947
1949,000000	7,161035
1948,000000	7,127943
1947,000000	7,080137
1946,000000	7,004135
1945,000000	6,888411
1944,000000	6,765655
1943,000000	6,713250
1942,000000	6,781991
1941,000000	6,935050
1940,000000	7,081633
1939,000000	7,164878
1938,000000	7,193825
1937,000000	7,200216
1936,000000	7,198474
1935,000000	7,191503
1934,000000	7,186408
1933,000000	7,188892
1932,000000	7,195594
1931,000000	7,201100
1930,000000	7,205431
1929,000000	7,209107
1928,000000	7,204589
1927,000000	7,173112
1926,000000	7,093214
1925,000000	6,969668
1924,000000	6,855894
1923,000000	6,815961
1922,000000	6,841806
1921,000000	6,841016
1920,000000	6,748665
1919,000000	6,630047
1918,000000	6,620075
1917,000000	6,763041
1916,000000	6,965429
1915,000000	7,109332
1914,000000	7,157818
1913,000000	7,136040
1912,000000	7,070793
1911,000000	6,989974
1910,000000	6,940036
1909,000000	6,954287
1908,000000	7,015206
1907,000000	7,078874
1906,000000	7,123284
1905,000000	7,151785
1904,000000	7,167531
1903,000000	7,171852
1902,000000	7,175233
1901,000000	7,185093
1900,000000	7,188621
1899,000000	7,164931
1898,000000	7,109415
1897,000000	7,040100
1896,000000	6,988990
1895,000000	6,983828
1894,000000	7,013564
1893,000000	7,012368
1892,000000	6,919853
1891,000000	6,771688
1890,000000	6,689721
1889,000000	6,751596
1888,000000	6,904538
1887,000000	7,036408
1886,000000	7,098778
1885,000000	7,122390
1884,000000	7,141702
1883,000000	7,158558
1882,000000	7,167977
1881,000000	7,174108
1880,000000	7,177033
1879,000000	7,174096
1878,000000	7,172416
1877,000000	7,179446
1876,000000	7,187718
1875,000000	7,182531
1874,000000	7,146532
1873,000000	7,037060
1872,000000	6,799779
1871,000000	6,452597
1870,000000	6,136466
1869,000000	6,022147
1868,000000	6,160306
1867,000000	6,450888
1866,000000	6,750042
1865,000000	6,970792
1864,000000	7,091560
1863,000000	7,129449
1862,000000	7,124694
1861,000000	7,117386
1860,000000	7,119824
1859,000000	7,124679
1858,000000	7,134072
1857,000000	7,155670
1856,000000	7,178452
1855,000000	7,184180
1854,000000	7,178757
1853,000000	7,177699
1852,000000	7,165679
1851,000000	7,111660
1850,000000	7,015829
1849,000000	6,893991
1848,000000	6,715559
1847,000000	6,426755
1846,000000	6,070499
1845,000000	5,828233
1844,000000	5,876967
1843,000000	6,209012
1842,000000	6,628418
1841,000000	6,925295
1840,000000	7,031081
1839,000000	7,016676
1838,000000	6,983752
1837,000000	6,983439
1836,000000	7,013787
1835,000000	7,038745
1834,000000	6,988899
1833,000000	6,789291
1832,000000	6,450394
1831,000000	6,127293
1830,000000	6,012639
1829,000000	6,134326
1828,000000	6,312354
1827,000000	6,371316
1826,000000	6,340855
1825,000000	6,386987
1824,000000	6,581593
1823,000000	6,826851
1822,000000	6,998694
1821,000000	7,069744
1820,000000	7,077204
1819,000000	7,052289
1818,000000	7,023491
1817,000000	7,025561
1816,000000	7,054823
1815,000000	7,049133
1814,000000	6,954544
1813,000000	6,795510
1812,000000	6,653078
1811,000000	6,594613
1810,000000	6,637044
1809,000000	6,750586
1808,000000	6,875653
1807,000000	6,953534
1806,000000	6,956562
1805,000000	6,880678
1804,000000	6,722173
1803,000000	6,499532
1802,000000	6,291431
1801,000000	6,199605
1800,000000	6,255065
1799,000000	6,392446
1798,000000	6,519487
1797,000000	6,561677
1796,000000	6,450570
1795,000000	6,153180
1794,000000	5,764005
1793,000000	5,500911
1792,000000	5,545777
1791,000000	5,887114
1790,000000	6,338582
1789,000000	6,687355
1788,000000	6,817576
1787,000000	6,754250
1786,000000	6,629610
1785,000000	6,568612
1784,000000	6,575380
1783,000000	6,560086
1782,000000	6,487507
1781,000000	6,439039
1780,000000	6,491857
1779,000000	6,600457
1778,000000	6,648079
1777,000000	6,556502
1776,000000	6,295567
1775,000000	5,865066
1774,000000	5,364217
1773,000000	5,019028
1772,000000	5,013759
1771,000000	5,291598
1770,000000	5,623404
1769,000000	5,875606
1768,000000	6,109591
1767,000000	6,392691
1766,000000	6,621976
1765,000000	6,622543
1764,000000	6,376290
1763,000000	6,080112
1762,000000	5,964105
1761,000000	6,073512
1760,000000	6,244758
1759,000000	6,293210
1758,000000	6,219951
1757,000000	6,193633
1756,000000	6,304876
1755,000000	6,407052
1754,000000	6,270194
1753,000000	5,866987
1752,000000	5,416373
1751,000000	5,147256
1750,000000	5,115366
1749,000000	5,252670
1748,000000	5,482358
1747,000000	5,727499
1746,000000	5,898062
1745,000000	5,952950
1744,000000	5,929289
1743,000000	5,860204
1742,000000	5,730543
1741,000000	5,578220
1740,000000	5,541968
1739,000000	5,678857
1738,000000	5,774931
1737,000000	5,520747
1736,000000	4,910129
1735,000000	4,341218
1734,000000	4,232704
1733,000000	4,614322
1732,000000	5,175324
1731,000000	5,635875
1730,000000	5,960595
1729,000000	6,236602
1728,000000	6,478659
1727,000000	6,617973
1726,000000	6,620899
1725,000000	6,546703
1724,000000	6,485163
1723,000000	6,439869
1722,000000	6,289067
1721,000000	5,879153
1720,000000	5,209326
1719,000000	4,513614
1718,000000	4,105482
1717,000000	4,124908
1716,000000	4,467910
1715,000000	4,947756
1714,000000	5,445751
1713,000000	5,889605
1712,000000	6,192453
1711,000000	6,298851
1710,000000	6,236313
1709,000000	6,050895
1708,000000	5,753806
1707,000000	5,410932
1706,000000	5,194471
1705,000000	5,182907
1704,000000	5,160602
1703,000000	4,813864
1702,000000	4,170018
1701,000000	3,655466
1700,000000	3,604159
1699,000000	3,867473
1698,000000	4,068206
1697,000000	4,119792
1696,000000	4,296931
1695,000000	4,807784
1694,000000	5,490589
1693,000000	5,994534
1692,000000	6,138030
1691,000000	6,027261
1690,000000	5,867254
1689,000000	5,723813
1688,000000	5,455944
1687,000000	4,900126
1686,000000	4,152894
1685,000000	3,609700
1684,000000	3,628867
1683,000000	4,175409
1682,000000	4,878615
1681,000000	5,421780
1680,000000	5,735552
1679,000000	5,832311
1678,000000	5,669226
1677,000000	5,291748
1676,000000	4,955527
1675,000000	4,908093
1674,000000	5,088540
1673,000000	5,185574
1672,000000	5,011603
1671,000000	4,711203
1670,000000	4,588747
1669,000000	4,813071
1668,000000	5,293664
1667,000000	5,760784
1666,000000	5,949651
1665,000000	5,790579
1664,000000	5,482058
1663,000000	5,331147
1662,000000	5,476988
1661,000000	5,795293
1660,000000	6,063902
1659,000000	6,146483
1658,000000	5,978956
1657,000000	5,473824
1656,000000	4,599488
1655,000000	3,578592
1654,000000	2,885913
1653,000000	2,905358
1652,000000	3,556802
1651,000000	4,318829
1650,000000	4,656956
1649,000000	4,461751
1648,000000	4,075864
1647,000000	3,945270
1646,000000	4,254646
1645,000000	4,852464
1644,000000	5,439251
1643,000000	5,809005
1642,000000	5,933327
1641,000000	5,874815
1640,000000	5,650389
1639,000000	5,214308
1638,000000	4,598316
1637,000000	4,028842
1636,000000	3,826079
1635,000000	4,139866
1634,000000	4,801445
1633,000000	5,458529
1632,000000	5,834687
1631,000000	5,872419
1630,000000	5,696505
1629,000000	5,492068
1628,000000	5,378380
1627,000000	5,333547
1626,000000	5,239565
1625,000000	5,048989
1624,000000	4,891447
1623,000000	4,952766
1622,000000	5,235184
1621,000000	5,489205
1620,000000	5,433311
1619,000000	5,036445
1618,000000	4,564768
1617,000000	4,363393
1616,000000	4,578200
1615,000000	5,061538
1614,000000	5,519919
1613,000000	5,751393
1612,000000	5,758682
1611,000000	5,670640
1610,000000	5,594822
1609,000000	5,566164
1608,000000	5,585317
1607,000000	5,643196
1606,000000	5,706252
1605,000000	5,732433
1604,000000	5,720544
1603,000000	5,715103
1602,000000	5,748225
1601,000000	5,802984
1600,000000	5,845195
1599,000000	5,860378
1598,000000	5,846909
1597,000000	5,804991
1596,000000	5,754246
1595,000000	5,734380
1594,000000	5,762737
1593,000000	5,809719
1592,000000	5,838977
1591,000000	5,853065
1590,000000	5,875266
1589,000000	5,906249
1588,000000	5,927875
1587,000000	5,937051
1586,000000	5,944318
1585,000000	5,946700
1584,000000	5,933578
1583,000000	5,914234
1582,000000	5,901305
1581,000000	5,847965
1580,000000	5,642500
1579,000000	5,211849
1578,000000	4,655888
1577,000000	4,247521
1576,000000	4,243893
1575,000000	4,646354
1574,000000	5,145316
1573,000000	5,355121
1572,000000	5,147641
1571,000000	4,756704
1570,000000	4,540130
1569,000000	4,650323
1568,000000	4,941356
1567,000000	5,174836
1566,000000	5,255807
1565,000000	5,243779
1564,000000	5,160997
1563,000000	4,866555
1562,000000	4,199729
1561,000000	3,260970
1560,000000	2,473425
1559,000000	2,262549
1558,000000	2,664579
1557,000000	3,321909
1556,000000	3,870707
1555,000000	4,240909
1554,000000	4,544765
1553,000000	4,808984
1552,000000	4,953889
1551,000000	4,985811
1550,000000	5,027460
1549,000000	5,126037
1548,000000	5,149647
1547,000000	4,952689
1546,000000	4,559991
1545,000000	4,114967
1544,000000	3,697478
1543,000000	3,281183
1542,000000	2,867421
1541,000000	2,595169
1540,000000	2,675582
1539,000000	3,192321
1538,000000	3,948811
1537,000000	4,545074
1536,000000	4,689393
1535,000000	4,471343
1534,000000	4,271174
1533,000000	4,375815
1532,000000	4,718847
1531,000000	5,015360
1530,000000	5,065187
1529,000000	4,883236
1528,000000	4,607767
1527,000000	4,373431
1526,000000	4,228958
1525,000000	4,099625
1524,000000	3,863396
1523,000000	3,530943
1522,000000	3,305873
1521,000000	3,367401
1520,000000	3,633218
1519,000000	3,852719
1518,000000	3,930009
1517,000000	4,016371
1516,000000	4,254151
1515,000000	4,563238
1514,000000	4,756494
1513,000000	4,766060
1512,000000	4,639851
1511,000000	4,380337
1510,000000	3,923314
1509,000000	3,305344
1508,000000	2,766258
1507,000000	2,618757
1506,000000	3,004674
1505,000000	3,768503
1504,000000	4,554553
1503,000000	5,043680
1502,000000	5,135694
1501,000000	4,935926
1500,000000	4,606140
1499,000000	4,263139
1498,000000	4,006765
1497,000000	3,949518
1496,000000	4,142682
1495,000000	4,474233
1494,000000	4,708223
1493,000000	4,664979
1492,000000	4,373602
1491,000000	4,043908
1490,000000	3,894334
1489,000000	3,999822
1488,000000	4,291266
1487,000000	4,659988
1486,000000	5,026859
1485,000000	5,321202
1484,000000	5,472956
1483,000000	5,480471
1482,000000	5,441404
1481,000000	5,444875
1480,000000	5,449372
1479,000000	5,338700
1478,000000	5,083717
1477,000000	4,766217
1476,000000	4,448308
1475,000000	4,124254
1474,000000	3,843297
1473,000000	3,770075
1472,000000	4,034823
1471,000000	4,556267
1470,000000	5,079840
1469,000000	5,369738
1468,000000	5,341791
1467,000000	5,080359
1466,000000	4,791418
1465,000000	4,693451
1464,000000	4,851343
1463,000000	5,102258
1462,000000	5,176090
1461,000000	4,905792
1460,000000	4,326313
1459,000000	3,647996
1458,000000	3,167860
1457,000000	3,126776
1456,000000	3,537107
1455,000000	4,154440
1454,000000	4,677225
1453,000000	4,974168
1452,000000	5,088181
1451,000000	5,081382
1450,000000	4,983402
1449,000000	4,866915
1448,000000	4,854374
1447,000000	4,998692
1446,000000	5,220035
1445,000000	5,397869
1444,000000	5,486776
1443,000000	5,518904
1442,000000	5,521294
1441,000000	5,455580
1440,000000	5,237573
1439,000000	4,839501
1438,000000	4,397884
1437,000000	4,170774
1436,000000	4,313853
1435,000000	4,707236
1434,000000	5,058759
1433,000000	5,181953
1432,000000	5,119119
1431,000000	5,024302
1430,000000	5,010325
1429,000000	5,101123
1428,000000	5,237011
1427,000000	5,303769
1426,000000	5,233316
1425,000000	5,095538
1424,000000	5,013220
1423,000000	4,967825
1422,000000	4,799349
1421,000000	4,448065
1420,000000	4,102304
1419,000000	4,020703
1418,000000	4,258865
1417,000000	4,651713
1416,000000	5,005762
1415,000000	5,232920
1414,000000	5,330689
1413,000000	5,334578
1412,000000	5,305080
1411,000000	5,295618
1410,000000	5,305719
1409,000000	5,287220
1408,000000	5,200803
1407,000000	5,055414
1406,000000	4,912102
1405,000000	4,854418
1404,000000	4,914987
1403,000000	5,009678
1402,000000	4,992886
1401,000000	4,819084
1400,000000	4,607475
1399,000000	4,493339
1398,000000	4,468574
1397,000000	4,435488
1396,000000	4,382068
1395,000000	4,413189
1394,000000	4,600582
1393,000000	4,878819
1392,000000	5,103231
1391,000000	5,165306
1390,000000	5,050772
1389,000000	4,843413
1388,000000	4,689964
1387,000000	4,704509
1386,000000	4,871712
1385,000000	5,069722
1384,000000	5,196375
1383,000000	5,241842
1382,000000	5,243586
1381,000000	5,223550
1380,000000	5,190343
1379,000000	5,152429
1378,000000	5,094813
1377,000000	4,980690
1376,000000	4,816768
1375,000000	4,690396
1374,000000	4,696937
1373,000000	4,834788
1372,000000	5,001065
1371,000000	5,095787
1370,000000	5,107901
1369,000000	5,097972
1368,000000	5,113471
1367,000000	5,128284
1366,000000	5,070001
1365,000000	4,908407
1364,000000	4,711369
1363,000000	4,600427
1362,000000	4,643438
1361,000000	4,801779
1360,000000	4,979944
1359,000000	5,106183
1358,000000	5,163639
1357,000000	5,170732
1356,000000	5,157211
1355,000000	5,150805
1354,000000	5,163019
1353,000000	5,182063
1352,000000	5,188729
1351,000000	5,179577
1350,000000	5,168704
1349,000000	5,168729
1348,000000	5,178068
1347,000000	5,187855
1346,000000	5,192716
1345,000000	5,187366
1344,000000	5,154591
1343,000000	5,068791
1342,000000	4,925300
1341,000000	4,766204
1340,000000	4,663989
1339,000000	4,666795
1338,000000	4,760678
1337,000000	4,890655
1336,000000	5,008602
1335,000000	5,094564
1334,000000	5,145735
1333,000000	5,165578
1332,000000	5,165556
1331,000000	5,161365
1330,000000	5,160595
1329,000000	5,160411
1328,000000	5,158307
1327,000000	5,156290
1326,000000	5,154310
1325,000000	5,148452
1324,000000	5,135818
1323,000000	5,113688
1322,000000	5,076000
1321,000000	5,021782
1320,000000	4,967843
1319,000000	4,940247
1318,000000	4,947805
1317,000000	4,972059
1316,000000	4,987374
1315,000000	4,985953
1314,000000	4,979941
1313,000000	4,984850
1312,000000	5,004809
1311,000000	5,029878
1310,000000	5,045448
1309,000000	5,046288
1308,000000	5,040749
1307,000000	5,039481
1306,000000	5,042801
1305,000000	5,043947
1304,000000	5,040956
1303,000000	5,037706
1302,000000	5,035494
1301,000000	5,031123
1300,000000	5,023443
1299,000000	5,014927
1298,000000	5,006983
1297,000000	4,999492
1296,000000	4,994247
1295,000000	4,992821
1294,000000	4,991684
1293,000000	4,985137
1292,000000	4,972446
1291,000000	4,957098
1290,000000	4,941045
1289,000000	4,925894
1288,000000	4,917076
1287,000000	4,919061
1286,000000	4,927145
1285,000000	4,931361
1284,000000	4,927863
1283,000000	4,920411
1282,000000	4,911843
1281,000000	4,901443
1280,000000	4,890304
1279,000000	4,881651
1278,000000	4,875062
1277,000000	4,866269
1276,000000	4,852788
1275,000000	4,834494
1274,000000	4,810231
1273,000000	4,780308
1272,000000	4,751460
1271,000000	4,731881
1270,000000	4,721148
1269,000000	4,711141
1268,000000	4,696871
1267,000000	4,680325
1266,000000	4,663571
1265,000000	4,644992
1264,000000	4,623273
1263,000000	4,600228
1262,000000	4,579047
1261,000000	4,564101
1260,000000	4,561200
1259,000000	4,572098
1258,000000	4,589482
1257,000000	4,603051
1256,000000	4,609915
1255,000000	4,614074
1254,000000	4,617284
1253,000000	4,617118
1252,000000	4,613366
1251,000000	4,609124
1250,000000	4,605028
1249,000000	4,598438
1248,000000	4,588764
1247,000000	4,578229
1246,000000	4,567448
1245,000000	4,555579
1244,000000	4,544605
1243,000000	4,537643
1242,000000	4,533110
1241,000000	4,526231
1240,000000	4,516224
1239,000000	4,506534
1238,000000	4,498056
1237,000000	4,488156
1236,000000	4,476425
1235,000000	4,465594
1234,000000	4,456166
1233,000000	4,445704
1232,000000	4,433971
1231,000000	4,423458
1230,000000	4,414152
1229,000000	4,402933
1228,000000	4,388920
1227,000000	4,374719
1226,000000	4,361934
1225,000000	4,349851
1224,000000	4,338686
1223,000000	4,329393
1222,000000	4,320130
1221,000000	4,307670
1220,000000	4,292588
1219,000000	4,278549
1218,000000	4,266488
1217,000000	4,253850
1216,000000	4,239458
1215,000000	4,224591
1214,000000	4,209552
1213,000000	4,193872
1212,000000	4,179667
1211,000000	4,169836
1210,000000	4,162988
1209,000000	4,154859
1208,000000	4,144529
1207,000000	4,134662
1206,000000	4,125873
1205,000000	4,116048
1204,000000	4,105167
1203,000000	4,095607
1202,000000	4,087322
1201,000000	4,077656
1200,000000	4,066420
1199,000000	4,056423
1198,000000	4,048482
1197,000000	4,040367
1196,000000	4,031142
1195,000000	4,022133
1194,000000	4,013290
1193,000000	4,002946
1192,000000	3,991426
1191,000000	3,980661
1190,000000	3,970103
1189,000000	3,957431
1188,000000	3,943432
1187,000000	3,931521
1186,000000	3,922026
1185,000000	3,911371
1184,000000	3,897373
1183,000000	3,881316
1182,000000	3,864603
1181,000000	3,847740
1180,000000	3,832825
1179,000000	3,822364
1178,000000	3,814829
1177,000000	3,805690
1176,000000	3,793564
1175,000000	3,781354
1174,000000	3,770871
1173,000000	3,760454
1172,000000	3,748626
1171,000000	3,735965
1170,000000	3,722473
1169,000000	3,706879
1168,000000	3,689569
1167,000000	3,672742
1166,000000	3,656978
1165,000000	3,640916
1164,000000	3,624602
1163,000000	3,609720
1162,000000	3,596238
1161,000000	3,582341
1160,000000	3,567994
1159,000000	3,555116
1158,000000	3,543914
1157,000000	3,532543
1156,000000	3,520649
1155,000000	3,509708
1154,000000	3,499677
1153,000000	3,488832
1152,000000	3,477226
1151,000000	3,466825
1150,000000	3,457826
1149,000000	3,448329
1148,000000	3,437865
1147,000000	3,427906
1146,000000	3,418627
1145,000000	3,408663
1144,000000	3,398337
1143,000000	3,389717
1142,000000	3,383027
1141,000000	3,376280
1140,000000	3,368687
1139,000000	3,361272
1138,000000	3,353959
1137,000000	3,345355
1136,000000	3,335620
1135,000000	3,326284
1134,000000	3,317068
1133,000000	3,306101
1132,000000	3,293466
1131,000000	3,281157
1130,000000	3,269478
1129,000000	3,256710
1128,000000	3,242545
1127,000000	3,228551
1126,000000	3,214973
1125,000000	3,200442
1124,000000	3,185070
1123,000000	3,170602
1122,000000	3,157183
1121,000000	3,143131
1120,000000	3,128145
1119,000000	3,113655
1118,000000	3,099755
1117,000000	3,084966
1116,000000	3,069252
1115,000000	3,054200
1114,000000	3,039986
1113,000000	3,025239
1112,000000	3,010107
1111,000000	2,996349
1110,000000	2,984182
1109,000000	2,972044
1108,000000	2,959796
1107,000000	2,949003
1106,000000	2,939910
1105,000000	2,931055
1104,000000	2,922095
1103,000000	2,914063
1102,000000	2,906632
1101,000000	2,898181
1100,000000	2,888785
1099,000000	2,880164
1098,000000	2,872505
1097,000000	2,864291
1096,000000	2,855391
1095,000000	2,847327
1094,000000	2,840211
1093,000000	2,832544
1092,000000	2,824227
1091,000000	2,816854
1090,000000	2,810647
1089,000000	2,804067
1088,000000	2,796768
1087,000000	2,790020
1086,000000	2,783920
1085,000000	2,777028
1084,000000	2,769201
1083,000000	2,761931
1082,000000	2,755612
1081,000000	2,749130
1080,000000	2,742494
1079,000000	2,737059
1078,000000	2,732950
1077,000000	2,728974
1076,000000	2,725292
1075,000000	2,723442
1074,000000	2,723356
1073,000000	2,723225
1072,000000	2,722509
1071,000000	2,722381
1070,000000	2,722906
1069,000000	2,722654
1068,000000	2,721476
1067,000000	2,720942
1066,000000	2,721466
1065,000000	2,721684
1064,000000	2,721097
1063,000000	2,720813
1062,000000	2,721220
1061,000000	2,721366
1060,000000	2,720989
1059,000000	2,720651
1058,000000	2,719442
1057,000000	2,714843
1056,000000	2,705553
1055,000000	2,692307
1054,000000	2,676303
1053,000000	2,659276
1052,000000	2,645337
1051,000000	2,639630
1050,000000	2,644626
1049,000000	2,659191
1048,000000	2,681031
1047,000000	2,707712
1046,000000	2,735251
1045,000000	2,759351
1044,000000	2,778661
1043,000000	2,794825
1042,000000	2,808986
1041,000000	2,820662
1040,000000	2,829979
1039,000000	2,838310
1038,000000	2,846163
1037,000000	2,852715
1036,000000	2,858093
1035,000000	2,863680
1034,000000	2,869898
1033,000000	2,875854
1032,000000	2,881503
1031,000000	2,887892
1030,000000	2,895029
1029,000000	2,901747
1028,000000	2,908010
1027,000000	2,915050
1026,000000	2,922979
1025,000000	2,930491
1024,000000	2,937256
1023,000000	2,944387
1022,000000	2,952282
1021,000000	2,960191
1020,000000	2,968141
1019,000000	2,977129
1018,000000	2,987054
1017,000000	2,996730
1016,000000	3,006111
1015,000000	3,016460
1014,000000	3,028033
1013,000000	3,039757
1012,000000	3,051364
1011,000000	3,063615
1010,000000	3,076228
1009,000000	3,087822
1008,000000	3,098220
1007,000000	3,108576
1006,000000	3,118997
1005,000000	3,128219
1004,000000	3,135963
1003,000000	3,143365
1002,000000	3,150718
1001,000000	3,156909
1000,000000	3,161591
999,000000	3,165728
998,000000	3,169711
997,000000	3,172842
996,000000	3,175057
995,000000	3,177214
994,000000	3,179234
993,000000	3,180032
992,000000	3,179491
991,000000	3,178646
990,000000	3,177679
989,000000	3,175705
988,000000	3,172746
987,000000	3,169882
986,000000	3,167152
985,000000	3,163426
984,000000	3,158600
983,000000	3,153946
982,000000	3,149935
981,000000	3,145644
980,000000	3,140701
979,000000	3,135758
978,000000	3,130799
977,000000	3,124907
976,000000	3,118161
975,000000	3,111801
974,000000	3,106150
973,000000	3,100191
972,000000	3,093547
971,000000	3,086990
970,000000	3,080648
969,000000	3,073632
968,000000	3,065785
967,000000	3,058043
966,000000	3,050620
965,000000	3,042731
964,000000	3,034343
963,000000	3,026437
962,000000	3,019083
961,000000	3,011145
960,000000	3,002251
959,000000	2,993347
958,000000	2,984905
957,000000	2,976320
956,000000	2,967464
955,000000	2,959069
954,000000	2,951199
953,000000	2,942998
952,000000	2,934363
951,000000	2,926197
950,000000	2,918695
949,000000	2,910994
948,000000	2,902853
947,000000	2,895015
946,000000	2,887611
945,000000	2,879892
944,000000	2,871824
943,000000	2,864312
942,000000	2,857428
941,000000	2,850132
940,000000	2,842102
939,000000	2,834278
938,000000	2,827113
937,000000	2,819853
936,000000	2,811928
935,000000	2,803687
934,000000	2,795417
933,000000	2,787008
932,000000	2,778808
931,000000	2,771422
930,000000	2,764451
929,000000	2,756846
928,000000	2,748631
927,000000	2,740817
926,000000	2,733623
925,000000	2,726223
924,000000	2,718381
923,000000	2,710721
922,000000	2,703298
921,000000	2,695459
920,000000	2,687234
919,000000	2,679321
918,000000	2,671504
917,000000	2,662699
916,000000	2,652709
915,000000	2,642445
914,000000	2,632273
913,000000	2,621706
912,000000	2,610855
911,000000	2,600603
910,000000	2,591110
909,000000	2,581692
908,000000	2,572333
907,000000	2,563813
906,000000	2,556173
905,000000	2,548584
904,000000	2,540890
903,000000	2,533736
902,000000	2,527038
901,000000	2,519867
900,000000	2,512146
899,000000	2,504849
898,000000	2,498308
897,000000	2,491761
896,000000	2,484843
895,000000	2,478021
894,000000	2,471295
893,000000	2,463938
892,000000	2,455811
891,000000	2,447592
890,000000	2,439387
889,000000	2,430516
888,000000	2,420779
887,000000	2,410610
886,000000	2,399810
885,000000	2,387567
884,000000	2,373972
883,000000	2,360134
882,000000	2,346597
881,000000	2,333057
880,000000	2,319841
879,000000	2,308221
878,000000	2,298929
877,000000	2,291700
876,000000	2,286432
875,000000	2,283550
874,000000	2,282874
873,000000	2,283449
872,000000	2,284857
871,000000	2,287343
870,000000	2,290584
869,000000	2,293497
868,000000	2,295562
867,000000	2,297114
866,000000	2,298141
865,000000	2,298048
864,000000	2,296777
863,000000	2,294970
862,000000	2,292727
861,000000	2,289523
860,000000	2,285470
859,000000	2,281434
858,000000	2,277640
857,000000	2,273341
856,000000	2,268177
855,000000	2,262699
854,000000	2,257311
853,000000	2,251822
852,000000	2,246314
851,000000	2,241359
850,000000	2,237107
849,000000	2,233127
848,000000	2,229335
847,000000	2,226061
846,000000	2,223097
845,000000	2,219734
844,000000	2,215880
843,000000	2,212095
842,000000	2,208426
841,000000	2,204269
840,000000	2,199502
839,000000	2,194636
838,000000	2,189693
837,000000	2,183930
836,000000	2,176844
835,000000	2,168446
834,000000	2,158370
833,000000	2,145869
832,000000	2,130829
831,000000	2,113943
830,000000	2,095788
829,000000	2,076730
828,000000	2,057947
827,000000	2,041505
826,000000	2,029209
825,000000	2,022018
824,000000	2,020692
823,000000	2,025638
822,000000	2,035945
821,000000	2,049332
820,000000	2,063347
819,000000	2,076191
818,000000	2,086515
817,000000	2,093587
816,000000	2,097795
815,000000	2,100174
814,000000	2,101199
813,000000	2,100729
812,000000	2,098898
811,000000	2,096177
810,000000	2,092650
809,000000	2,088088
808,000000	2,082810
807,000000	2,077527
806,000000	2,072364
805,000000	2,066937
804,000000	2,061360
803,000000	2,056235
802,000000	2,051648
801,000000	2,047197
800,000000	2,043082
799,000000	2,040188
798,000000	2,038911
797,000000	2,038754
796,000000	2,039284
795,000000	2,040577
794,000000	2,042568
793,000000	2,044834
792,000000	2,047269
791,000000	2,050238
790,000000	2,053734
789,000000	2,057108
788,000000	2,059854
787,000000	2,062057
786,000000	2,063862
785,000000	2,065139
784,000000	2,065879
783,000000	2,066342
782,000000	2,066593
781,000000	2,066375
780,000000	2,065633
779,000000	2,064690
778,000000	2,063774
777,000000	2,062820
776,000000	2,061783
775,000000	2,060722
774,000000	2,059473
773,000000	2,057721
772,000000	2,055516
771,000000	2,053321
770,000000	2,051418
769,000000	2,049605
768,000000	2,047545
767,000000	2,045092
766,000000	2,042205
765,000000	2,038883
764,000000	2,035304
763,000000	2,031763
762,000000	2,028351
761,000000	2,024889
760,000000	2,021243
759,000000	2,017534
758,000000	2,013933
757,000000	2,010385
756,000000	2,006608
755,000000	2,002368
754,000000	1,997717
753,000000	1,992934
752,000000	1,988261
751,000000	1,983756
750,000000	1,979365
749,000000	1,974947
748,000000	1,970194
747,000000	1,964822
746,000000	1,958971
745,000000	1,953113
744,000000	1,947415
743,000000	1,941596
742,000000	1,935655
741,000000	1,930190
740,000000	1,925589
739,000000	1,921338
738,000000	1,916637
737,000000	1,911300
736,000000	1,905579
735,000000	1,899568
734,000000	1,893301
733,000000	1,886981
732,000000	1,880657
731,000000	1,874136
730,000000	1,867567
729,000000	1,861425
728,000000	1,855649
727,000000	1,849707
726,000000	1,843605
725,000000	1,836998
724,000000	1,826847
723,000000	1,808925
722,000000	1,784387
721,000000	1,762750
720,000000	1,754612
719,000000	1,761073
718,000000	1,772853
717,000000	1,779864
716,000000	1,779068
715,000000	1,773331
714,000000	1,765992
713,000000	1,758458
712,000000	1,750925
711,000000	1,743132
710,000000	1,734551
709,000000	1,724827
708,000000	1,714000
707,000000	1,702368
706,000000	1,690546
705,000000	1,679432
704,000000	1,669294
703,000000	1,659147
702,000000	1,647647
701,000000	1,634253
700,000000	1,619065
699,000000	1,602370
698,000000	1,585053
697,000000	1,568318
696,000000	1,552127
695,000000	1,535031
694,000000	1,516294
693,000000	1,496444
692,000000	1,475122
691,000000	1,450913
690,000000	1,425002
689,000000	1,402297
688,000000	1,386548
687,000000	1,376528
686,000000	1,368996
685,000000	1,362746
684,000000	1,357213
683,000000	1,350455
682,000000	1,341809
681,000000	1,333856
680,000000	1,328493
679,000000	1,324254
678,000000	1,320248
677,000000	1,318630
676,000000	1,320077
675,000000	1,322076
674,000000	1,322637
673,000000	1,314121
672,000000	1,268684
671,000000	1,151395
670,000000	0,973096
669,000000	0,819728
668,000000	0,795447
667,000000	0,921216
666,000000	1,108626
665,000000	1,246436
664,000000	1,294311
663,000000	1,285916
662,000000	1,264513
661,000000	1,244015
660,000000	1,223388
659,000000	1,205456
658,000000	1,192771
657,000000	1,181575
656,000000	1,169160
655,000000	1,158480
654,000000	1,151250
653,000000	1,143839
652,000000	1,133653
651,000000	1,123219
650,000000	1,115463
649,000000	1,110552
648,000000	1,108946
647,000000	1,111844
646,000000	1,117063
645,000000	1,119885
644,000000	1,119258
643,000000	1,118459
642,000000	1,118720
641,000000	1,117673
640,000000	1,114663
639,000000	1,112217
638,000000	1,110903
637,000000	1,108165
636,000000	1,103726
635,000000	1,101034
634,000000	1,101592
633,000000	1,102465
632,000000	1,101399
631,000000	1,099690
630,000000	1,098097
629,000000	1,094217
628,000000	1,086657
627,000000	1,078122
626,000000	1,071950
625,000000	1,068360
624,000000	1,066053
623,000000	1,064392
622,000000	1,061759
621,000000	1,054681
620,000000	1,041447
619,000000	1,025341
618,000000	1,012328
617,000000	1,006387
616,000000	1,007390
615,000000	1,011762
614,000000	1,014610
613,000000	1,012947
612,000000	1,007656
611,000000	1,001446
610,000000	0,995135
609,000000	0,987677
608,000000	0,979096
607,000000	0,970870
606,000000	0,963633
605,000000	0,956819
604,000000	0,950533
603,000000	0,945387
602,000000	0,940774
601,000000	0,935649
600,000000	0,930783
599,000000	0,927621
598,000000	0,925309
597,000000	0,921326
596,000000	0,914771
595,000000	0,906435
594,000000	0,896463
593,000000	0,885247
592,000000	0,876011
591,000000	0,872515
590,000000	0,873603
589,000000	0,873616
588,000000	0,868804
587,000000	0,860619
586,000000	0,852026
585,000000	0,843678
584,000000	0,834831
583,000000	0,825396
582,000000	0,815942
581,000000	0,807217
580,000000	0,799857
579,000000	0,793105
578,000000	0,784621
577,000000	0,773899
576,000000	0,764701
575,000000	0,760843
574,000000	0,760443
573,000000	0,757647
572,000000	0,749904
571,000000	0,739764
570,000000	0,729928
569,000000	0,720809
568,000000	0,713112
567,000000	0,708439
566,000000	0,705963
565,000000	0,702330
564,000000	0,696099
563,000000	0,689261
562,000000	0,683278
561,000000	0,677096
560,000000	0,670078
559,000000	0,663508
558,000000	0,657786
557,000000	0,651337
556,000000	0,643753
555,000000	0,636878
554,000000	0,631392
553,000000	0,625260
552,000000	0,617277
551,000000	0,609109
550,000000	0,602265
549,000000	0,595768
548,000000	0,588722
547,000000	0,582556
546,000000	0,578711
545,000000	0,576255
544,000000	0,573520
543,000000	0,570259
542,000000	0,566625
541,000000	0,562059
540,000000	0,556551
539,000000	0,551236
538,000000	0,546515
537,000000	0,541545
536,000000	0,536379
535,000000	0,532406
534,000000	0,529603
533,000000	0,525916
532,000000	0,520486
531,000000	0,514755
530,000000	0,508934
529,000000	0,500280
528,000000	0,487480
527,000000	0,474414
526,000000	0,466925
525,000000	0,466589
524,000000	0,469579
523,000000	0,470620
522,000000	0,466431
521,000000	0,456808
520,000000	0,444420
519,000000	0,433424
518,000000	0,427003
517,000000	0,425969
516,000000	0,429206
515,000000	0,434261
514,000000	0,437809
513,000000	0,437630
512,000000	0,434580
511,000000	0,430969
510,000000	0,426938
509,000000	0,420985
508,000000	0,413926
507,000000	0,409021
506,000000	0,406805
505,000000	0,403326
504,000000	0,395857
503,000000	0,387677
502,000000	0,384473
501,000000	0,387349
500,000000	0,392154
499,000000	0,394600
498,000000	0,393584
497,000000	0,390115
496,000000	0,385176
495,000000	0,379145
494,000000	0,372208
493,000000	0,365029
492,000000	0,359139
491,000000	0,355790
490,000000	0,354158
489,000000	0,351590
488,000000	0,346143
487,000000	0,338154
486,000000	0,329192
485,000000	0,320845
484,000000	0,314774
483,000000	0,312108
482,000000	0,311800
481,000000	0,310890
480,000000	0,307392
479,000000	0,302021
478,000000	0,296420
477,000000	0,290616
476,000000	0,283065
475,000000	0,272669
474,000000	0,260572
473,000000	0,250484
472,000000	0,246422
471,000000	0,248773
470,000000	0,253078
469,000000	0,254428
468,000000	0,252811
467,000000	0,251757
466,000000	0,252416
465,000000	0,252143
464,000000	0,249238
463,000000	0,245460
462,000000	0,242029
461,000000	0,236426
460,000000	0,226147
459,000000	0,214148
458,000000	0,207411
457,000000	0,209909
456,000000	0,218673
455,000000	0,226877
454,000000	0,230082
453,000000	0,229319
452,000000	0,228506
451,000000	0,229452
450,000000	0,230062
449,000000	0,227852
448,000000	0,223653
447,000000	0,220086
446,000000	0,217523
445,000000	0,214064
444,000000	0,209480
443,000000	0,206380
442,000000	0,206753
441,000000	0,209346
440,000000	0,211194
439,000000	0,210301
438,000000	0,206435
437,000000	0,201103
436,000000	0,197041
435,000000	0,195912
434,000000	0,196186
433,000000	0,194981
432,000000	0,191903
431,000000	0,189104
430,000000	0,187477
429,000000	0,185328
428,000000	0,181132
427,000000	0,175211
426,000000	0,168366
425,000000	0,161106
424,000000	0,154355
423,000000	0,148118
422,000000	0,139473
421,000000	0,125672
420,000000	0,110370
419,000000	0,102691
418,000000	0,107698
417,000000	0,120455
416,000000	0,131638
415,000000	0,136539
414,000000	0,136345
413,000000	0,133536
412,000000	0,129570
411,000000	0,125615
410,000000	0,122355
409,000000	0,119168
408,000000	0,115316
407,000000	0,111338
406,000000	0,108023
405,000000	0,104898
404,000000	0,100965
403,000000	0,095859
402,000000	0,089117
401,000000	0,079847
400,000000	0,068675
399,000000	0,058810
398,000000	0,053378
397,000000	0,052504
396,000000	0,054131
395,000000	0,056610
394,000000	0,059140
393,000000	0,060829
392,000000	0,061053
391,000000	0,060069
390,000000	0,058205
389,000000	0,055117
388,000000	0,050754
387,000000	0,046153
386,000000	0,042423
385,000000	0,039832
384,000000	0,038391
383,000000	0,038158
382,000000	0,038349
381,000000	0,037492
380,000000	0,035134
379,000000	0,032111
378,000000	0,028747
377,000000	0,024566
376,000000	0,020312
375,000000	0,018159
374,000000	0,018789
373,000000	0,020147
372,000000	0,020288
371,000000	0,019649
370,000000	0,019330
369,000000	0,019029
368,000000	0,018091
367,000000	0,017008
366,000000	0,016275
365,000000	0,015277
364,000000	0,013591
363,000000	0,012016
362,000000	0,011152
361,000000	0,010315
360,000000	0,008958
359,000000	0,007817
358,000000	0,007465
357,000000	0,007080
356,000000	0,005983
355,000000	0,004879
354,000000	0,004371
353,000000	0,003838
352,000000	0,002897
351,000000	0,002333
350,000000	0,002871
349,000000	0,003458
348,000000	0,003290
347,000000	0,003240
346,000000	0,003770
345,000000	0,003859
344,000000	0,002985
343,000000	0,002206
342,000000	0,002175
341,000000	0,001965
340,000000	0,001031
339,000000	0,000552
338,000000	0,000720
337,000000	0,000566
336,000000	0,000188
335,000000	0,000337
334,000000	0,000309
333,000000	0,000247
332,000000	0,000600
331,000000	0,001156
330,000000	0,000697
329,000000	0,000321
328,000000	0,000397
327,000000	0,000673
326,000000	0,001136
325,000000	0,001360
324,000000	0,000913
323,000000	0,000544
322,000000	0,000190
321,000000	0,000555
320,000000	0,000648
319,000000	0,001290
318,000000	0,001505
317,000000	0,001482
316,000000	0,000912
315,000000	0,000224
314,000000	0,000281
313,000000	0,000388
312,000000	0,001228
311,000000	0,002143
310,000000	0,001956
309,000000	0,001420
308,000000	0,001350
307,000000	0,001225
306,000000	0,000555
305,000000	0,000808
304,000000	0,000943
303,000000	0,001022
302,000000	0,001308
301,000000	0,001424
300,000000	0,001568
