PE IR       SUBTECH     SPECTRUM    ASCII       PEDS        4.00        
   -1
REF Al2O3 .ASC
25/06/17
10:42:54.00
25/06/17
10:42:54.00
Praktikum
Sample 026 By Praktikum date Dienstag, Juni 17 2025
300,000000
#HDR
-1
-1
#GR
cm-1
EGY
1.0
0.0
4000,000000
-1,000000
3701
8
3,012225
0,000133
#DATA
4000,000000	0,768434
3999,000000	0,767398
3998,000000	0,765921
3997,000000	0,764688
3996,000000	0,764111
3995,000000	0,764074
3994,000000	0,764162
3993,000000	0,764185
3992,000000	0,764425
3991,000000	0,765293
3990,000000	0,766780
3989,000000	0,768337
3988,000000	0,769335
3987,000000	0,769573
3986,000000	0,769294
3985,000000	0,768844
3984,000000	0,768424
3983,000000	0,768122
3982,000000	0,767985
3981,000000	0,767961
3980,000000	0,767839
3979,000000	0,767384
3978,000000	0,766552
3977,000000	0,765562
3976,000000	0,764746
3975,000000	0,764359
3974,000000	0,764503
3973,000000	0,765186
3972,000000	0,766383
3971,000000	0,768044
3970,000000	0,770045
3969,000000	0,772092
3968,000000	0,773662
3967,000000	0,774078
3966,000000	0,772854
3965,000000	0,770181
3964,000000	0,767102
3963,000000	0,765017
3962,000000	0,764729
3961,000000	0,765890
3960,000000	0,767443
3959,000000	0,768609
3958,000000	0,769417
3957,000000	0,770243
3956,000000	0,770911
3955,000000	0,770355
3954,000000	0,767160
3953,000000	0,760607
3952,000000	0,751556
3951,000000	0,742590
3950,000000	0,736960
3949,000000	0,736523
3948,000000	0,739933
3947,000000	0,742997
3946,000000	0,741972
3945,000000	0,737151
3944,000000	0,733183
3943,000000	0,735163
3942,000000	0,743996
3941,000000	0,755855
3940,000000	0,765868
3939,000000	0,771546
3938,000000	0,772638
3937,000000	0,768952
3936,000000	0,759933
3935,000000	0,746711
3934,000000	0,733358
3933,000000	0,725130
3932,000000	0,724979
3931,000000	0,731547
3930,000000	0,739989
3929,000000	0,744783
3928,000000	0,743174
3927,000000	0,737082
3926,000000	0,731554
3925,000000	0,730572
3924,000000	0,733505
3923,000000	0,735802
3922,000000	0,733142
3921,000000	0,724991
3920,000000	0,714951
3919,000000	0,708470
3918,000000	0,710129
3917,000000	0,721259
3916,000000	0,738938
3915,000000	0,757464
3914,000000	0,771809
3913,000000	0,780490
3912,000000	0,784845
3911,000000	0,785573
3910,000000	0,780280
3909,000000	0,764755
3908,000000	0,736861
3907,000000	0,699682
3906,000000	0,661119
3905,000000	0,629747
3904,000000	0,610073
3903,000000	0,601451
3902,000000	0,601578
3901,000000	0,610443
3900,000000	0,630099
3899,000000	0,659970
3898,000000	0,693430
3897,000000	0,719612
3896,000000	0,729367
3895,000000	0,720914
3894,000000	0,701769
3893,000000	0,685401
3892,000000	0,682723
3891,000000	0,693066
3890,000000	0,703235
3889,000000	0,699299
3888,000000	0,680409
3887,000000	0,660279
3886,000000	0,652987
3885,000000	0,658596
3884,000000	0,664858
3883,000000	0,662600
3882,000000	0,656752
3881,000000	0,660509
3880,000000	0,679461
3879,000000	0,703848
3878,000000	0,717340
3877,000000	0,712326
3876,000000	0,695244
3875,000000	0,676641
3874,000000	0,659462
3873,000000	0,639823
3872,000000	0,618225
3871,000000	0,604402
3870,000000	0,607210
3869,000000	0,622398
3868,000000	0,635266
3867,000000	0,635979
3866,000000	0,629155
3865,000000	0,627557
3864,000000	0,638957
3863,000000	0,661193
3862,000000	0,686474
3861,000000	0,706706
3860,000000	0,714320
3859,000000	0,701953
3858,000000	0,664970
3857,000000	0,606327
3856,000000	0,540063
3855,000000	0,488585
3854,000000	0,472216
3853,000000	0,497089
3852,000000	0,551743
3851,000000	0,615554
3850,000000	0,671234
3849,000000	0,710220
3848,000000	0,730331
3847,000000	0,732621
3846,000000	0,721329
3845,000000	0,702962
3844,000000	0,682304
3843,000000	0,659497
3842,000000	0,632518
3841,000000	0,602657
3840,000000	0,576776
3839,000000	0,563584
3838,000000	0,567575
3837,000000	0,585602
3836,000000	0,608899
3835,000000	0,629350
3834,000000	0,645068
3833,000000	0,660123
3832,000000	0,678360
3831,000000	0,697911
3830,000000	0,712623
3829,000000	0,719086
3828,000000	0,720177
3827,000000	0,719564
3826,000000	0,713721
3825,000000	0,693309
3824,000000	0,655649
3823,000000	0,614023
3822,000000	0,589244
3821,000000	0,590111
3820,000000	0,604345
3819,000000	0,612906
3818,000000	0,611317
3817,000000	0,613789
3816,000000	0,636136
3815,000000	0,678227
3814,000000	0,724877
3813,000000	0,759283
3812,000000	0,772612
3811,000000	0,763664
3810,000000	0,737287
3809,000000	0,705218
3808,000000	0,682435
3807,000000	0,675547
3806,000000	0,674647
3805,000000	0,662411
3804,000000	0,633915
3803,000000	0,604843
3802,000000	0,596594
3801,000000	0,614468
3800,000000	0,643983
3799,000000	0,667950
3798,000000	0,683582
3797,000000	0,700474
3796,000000	0,726078
3795,000000	0,757024
3794,000000	0,784172
3793,000000	0,802109
3792,000000	0,811957
3791,000000	0,817218
3790,000000	0,819208
3789,000000	0,816744
3788,000000	0,809133
3787,000000	0,799021
3786,000000	0,791286
3785,000000	0,788396
3784,000000	0,786723
3783,000000	0,779515
3782,000000	0,764903
3781,000000	0,750095
3780,000000	0,746006
3779,000000	0,757218
3778,000000	0,778153
3777,000000	0,798550
3776,000000	0,810758
3775,000000	0,811407
3774,000000	0,799267
3773,000000	0,775803
3772,000000	0,748171
3771,000000	0,727372
3770,000000	0,719821
3769,000000	0,722013
3768,000000	0,726112
3767,000000	0,729923
3766,000000	0,737547
3765,000000	0,749995
3764,000000	0,759259
3763,000000	0,755325
3762,000000	0,737305
3761,000000	0,715206
3760,000000	0,701001
3759,000000	0,699216
3758,000000	0,704406
3757,000000	0,704722
3756,000000	0,688376
3755,000000	0,650943
3754,000000	0,599320
3753,000000	0,548784
3752,000000	0,515005
3751,000000	0,505868
3750,000000	0,516677
3749,000000	0,531142
3748,000000	0,531296
3747,000000	0,512907
3746,000000	0,492326
3745,000000	0,493867
3744,000000	0,527038
3743,000000	0,577599
3742,000000	0,620533
3741,000000	0,638660
3740,000000	0,629375
3739,000000	0,600068
3738,000000	0,562914
3737,000000	0,531599
3736,000000	0,516255
3735,000000	0,519236
3734,000000	0,537335
3733,000000	0,567050
3732,000000	0,604437
3731,000000	0,641056
3730,000000	0,665485
3729,000000	0,672307
3728,000000	0,667153
3727,000000	0,660606
3726,000000	0,658635
3725,000000	0,660599
3724,000000	0,664773
3723,000000	0,672166
3722,000000	0,684565
3721,000000	0,701589
3720,000000	0,720807
3719,000000	0,739005
3718,000000	0,751445
3717,000000	0,750935
3716,000000	0,730901
3715,000000	0,691845
3714,000000	0,644658
3713,000000	0,606005
3712,000000	0,589106
3711,000000	0,597228
3710,000000	0,624562
3709,000000	0,661066
3708,000000	0,696311
3707,000000	0,721379
3706,000000	0,730376
3705,000000	0,723381
3704,000000	0,707981
3703,000000	0,696361
3702,000000	0,698046
3701,000000	0,713132
3700,000000	0,732955
3699,000000	0,747918
3698,000000	0,754520
3697,000000	0,754264
3696,000000	0,747195
3695,000000	0,729294
3694,000000	0,697082
3693,000000	0,653116
3692,000000	0,606568
3691,000000	0,570190
3690,000000	0,556049
3689,000000	0,570480
3688,000000	0,609252
3687,000000	0,658206
3686,000000	0,701524
3685,000000	0,729994
3684,000000	0,742098
3683,000000	0,739889
3682,000000	0,725807
3681,000000	0,701132
3680,000000	0,664679
3679,000000	0,614972
3678,000000	0,558434
3677,000000	0,513471
3676,000000	0,499254
3675,000000	0,515974
3674,000000	0,540994
3673,000000	0,550071
3672,000000	0,541275
3671,000000	0,535494
3670,000000	0,553958
3669,000000	0,598543
3668,000000	0,653398
3667,000000	0,700499
3666,000000	0,731283
3665,000000	0,747093
3664,000000	0,753402
3663,000000	0,754801
3662,000000	0,752148
3661,000000	0,742193
3660,000000	0,721036
3659,000000	0,690422
3658,000000	0,661031
3657,000000	0,645820
3656,000000	0,646689
3655,000000	0,648587
3654,000000	0,630293
3653,000000	0,583972
3652,000000	0,523112
3651,000000	0,472144
3650,000000	0,450002
3649,000000	0,462253
3648,000000	0,503527
3647,000000	0,561531
3646,000000	0,620244
3645,000000	0,665794
3644,000000	0,693167
3643,000000	0,706404
3642,000000	0,712249
3641,000000	0,714677
3640,000000	0,714910
3639,000000	0,713181
3638,000000	0,708487
3637,000000	0,699150
3636,000000	0,685486
3635,000000	0,669549
3634,000000	0,649677
3633,000000	0,618512
3632,000000	0,571965
3631,000000	0,521163
3630,000000	0,489945
3629,000000	0,496687
3628,000000	0,538388
3627,000000	0,593820
3626,000000	0,640043
3625,000000	0,664645
3624,000000	0,665365
3623,000000	0,645567
3622,000000	0,613409
3621,000000	0,582229
3620,000000	0,565688
3619,000000	0,569157
3618,000000	0,585547
3617,000000	0,601167
3616,000000	0,606938
3615,000000	0,604251
3614,000000	0,600354
3613,000000	0,599256
3612,000000	0,598471
3611,000000	0,594712
3610,000000	0,590849
3609,000000	0,595041
3608,000000	0,612612
3607,000000	0,639989
3606,000000	0,666728
3605,000000	0,683067
3604,000000	0,685786
3603,000000	0,678795
3602,000000	0,669478
3601,000000	0,663588
3600,000000	0,661765
3599,000000	0,660329
3598,000000	0,655808
3597,000000	0,649011
3596,000000	0,644881
3595,000000	0,648045
3594,000000	0,657774
3593,000000	0,666396
3592,000000	0,663387
3591,000000	0,643372
3590,000000	0,612640
3589,000000	0,587211
3588,000000	0,582297
3587,000000	0,601595
3586,000000	0,635822
3585,000000	0,670729
3584,000000	0,696377
3583,000000	0,710648
3582,000000	0,716707
3581,000000	0,718765
3580,000000	0,719558
3579,000000	0,720147
3578,000000	0,720851
3577,000000	0,722067
3576,000000	0,724253
3575,000000	0,727103
3574,000000	0,728572
3573,000000	0,724387
3572,000000	0,709087
3571,000000	0,679622
3570,000000	0,640146
3569,000000	0,603277
3568,000000	0,584021
3567,000000	0,590038
3566,000000	0,616369
3565,000000	0,649686
3564,000000	0,677704
3563,000000	0,695817
3562,000000	0,706485
3561,000000	0,714348
3560,000000	0,722056
3559,000000	0,729330
3558,000000	0,734133
3557,000000	0,734229
3556,000000	0,728758
3555,000000	0,719623
3554,000000	0,711388
3553,000000	0,708443
3552,000000	0,710952
3551,000000	0,713859
3550,000000	0,710960
3549,000000	0,700752
3548,000000	0,688132
3547,000000	0,680532
3546,000000	0,682459
3545,000000	0,693260
3544,000000	0,708742
3543,000000	0,724074
3542,000000	0,735685
3541,000000	0,741781
3540,000000	0,742321
3539,000000	0,739012
3538,000000	0,734994
3537,000000	0,733428
3536,000000	0,735387
3535,000000	0,738950
3534,000000	0,740636
3533,000000	0,737967
3532,000000	0,730836
3531,000000	0,721168
3530,000000	0,711891
3529,000000	0,705711
3528,000000	0,703578
3527,000000	0,704038
3526,000000	0,704957
3525,000000	0,706164
3524,000000	0,709651
3523,000000	0,716688
3522,000000	0,725647
3521,000000	0,733441
3520,000000	0,738612
3519,000000	0,742037
3518,000000	0,745025
3517,000000	0,747656
3516,000000	0,749047
3515,000000	0,748276
3514,000000	0,744792
3513,000000	0,738741
3512,000000	0,731662
3511,000000	0,726423
3510,000000	0,725408
3509,000000	0,728171
3508,000000	0,731060
3507,000000	0,729917
3506,000000	0,723735
3505,000000	0,715905
3504,000000	0,711676
3503,000000	0,714053
3502,000000	0,721762
3501,000000	0,730636
3500,000000	0,736852
3499,000000	0,739161
3498,000000	0,738978
3497,000000	0,738770
3496,000000	0,740089
3495,000000	0,742627
3494,000000	0,744856
3493,000000	0,745510
3492,000000	0,744429
3491,000000	0,742309
3490,000000	0,740123
3489,000000	0,738797
3488,000000	0,738773
3487,000000	0,739404
3486,000000	0,739139
3485,000000	0,736906
3484,000000	0,733442
3483,000000	0,731017
3482,000000	0,731630
3481,000000	0,735421
3480,000000	0,740563
3479,000000	0,744572
3478,000000	0,746037
3477,000000	0,745454
3476,000000	0,744543
3475,000000	0,744652
3474,000000	0,745858
3473,000000	0,747433
3472,000000	0,748735
3471,000000	0,749476
3470,000000	0,749543
3469,000000	0,749059
3468,000000	0,748413
3467,000000	0,747817
3466,000000	0,746953
3465,000000	0,745487
3464,000000	0,743900
3463,000000	0,743341
3462,000000	0,744481
3461,000000	0,746795
3460,000000	0,749133
3459,000000	0,750775
3458,000000	0,751778
3457,000000	0,752499
3456,000000	0,753112
3455,000000	0,753616
3454,000000	0,754039
3453,000000	0,754174
3452,000000	0,753070
3451,000000	0,749299
3450,000000	0,742558
3449,000000	0,735056
3448,000000	0,730543
3447,000000	0,731207
3446,000000	0,735713
3445,000000	0,740782
3444,000000	0,744383
3443,000000	0,746885
3442,000000	0,749414
3441,000000	0,752141
3440,000000	0,754481
3439,000000	0,756142
3438,000000	0,757266
3437,000000	0,757899
3436,000000	0,757908
3435,000000	0,757392
3434,000000	0,756788
3433,000000	0,756550
3432,000000	0,756908
3431,000000	0,757876
3430,000000	0,759276
3429,000000	0,760784
3428,000000	0,762084
3427,000000	0,762890
3426,000000	0,762759
3425,000000	0,761164
3424,000000	0,758156
3423,000000	0,754889
3422,000000	0,753088
3421,000000	0,753782
3420,000000	0,756597
3419,000000	0,760233
3418,000000	0,763459
3417,000000	0,765686
3416,000000	0,766936
3415,000000	0,767564
3414,000000	0,767998
3413,000000	0,768513
3412,000000	0,769115
3411,000000	0,769598
3410,000000	0,769777
3409,000000	0,769707
3408,000000	0,769671
3407,000000	0,769870
3406,000000	0,770175
3405,000000	0,770289
3404,000000	0,770153
3403,000000	0,769992
3402,000000	0,769863
3401,000000	0,769481
3400,000000	0,768726
3399,000000	0,768110
3398,000000	0,768316
3397,000000	0,769252
3396,000000	0,769993
3395,000000	0,769850
3394,000000	0,769227
3393,000000	0,769217
3392,000000	0,770491
3391,000000	0,772764
3390,000000	0,775120
3389,000000	0,776620
3388,000000	0,776762
3387,000000	0,775806
3386,000000	0,774741
3385,000000	0,774665
3384,000000	0,775938
3383,000000	0,777959
3382,000000	0,779774
3381,000000	0,780833
3380,000000	0,781197
3379,000000	0,781244
3378,000000	0,781325
3377,000000	0,781612
3376,000000	0,782060
3375,000000	0,782459
3374,000000	0,782574
3373,000000	0,782308
3372,000000	0,781726
3371,000000	0,780935
3370,000000	0,779981
3369,000000	0,778901
3368,000000	0,777856
3367,000000	0,777180
3366,000000	0,777181
3365,000000	0,777832
3364,000000	0,778740
3363,000000	0,779485
3362,000000	0,779993
3361,000000	0,780470
3360,000000	0,781041
3359,000000	0,781605
3358,000000	0,782092
3357,000000	0,782687
3356,000000	0,783616
3355,000000	0,784779
3354,000000	0,785767
3353,000000	0,786273
3352,000000	0,786374
3351,000000	0,786378
3350,000000	0,786511
3349,000000	0,786804
3348,000000	0,787191
3347,000000	0,787580
3346,000000	0,787836
3345,000000	0,787844
3344,000000	0,787639
3343,000000	0,787397
3342,000000	0,787242
3341,000000	0,787104
3340,000000	0,786828
3339,000000	0,786424
3338,000000	0,786110
3337,000000	0,786139
3336,000000	0,786630
3335,000000	0,787519
3334,000000	0,788578
3333,000000	0,789455
3332,000000	0,789838
3331,000000	0,789679
3330,000000	0,789220
3329,000000	0,788765
3328,000000	0,788451
3327,000000	0,788291
3326,000000	0,788339
3325,000000	0,788681
3324,000000	0,789316
3323,000000	0,790135
3322,000000	0,791027
3321,000000	0,791925
3320,000000	0,792728
3319,000000	0,793224
3318,000000	0,793175
3317,000000	0,792512
3316,000000	0,791466
3315,000000	0,790464
3314,000000	0,789806
3313,000000	0,789438
3312,000000	0,789148
3311,000000	0,789003
3310,000000	0,789431
3309,000000	0,790723
3308,000000	0,792575
3307,000000	0,794257
3306,000000	0,795212
3305,000000	0,795410
3304,000000	0,795227
3303,000000	0,795120
3302,000000	0,795367
3301,000000	0,795901
3300,000000	0,796380
3299,000000	0,796520
3298,000000	0,796345
3297,000000	0,796002
3296,000000	0,795451
3295,000000	0,794607
3294,000000	0,793733
3293,000000	0,793392
3292,000000	0,793870
3291,000000	0,794840
3290,000000	0,795755
3289,000000	0,796396
3288,000000	0,796906
3287,000000	0,797447
3286,000000	0,798017
3285,000000	0,798531
3284,000000	0,798902
3283,000000	0,799063
3282,000000	0,799023
3281,000000	0,798854
3280,000000	0,798545
3279,000000	0,797916
3278,000000	0,796812
3277,000000	0,795408
3276,000000	0,794236
3275,000000	0,793903
3274,000000	0,794728
3273,000000	0,796541
3272,000000	0,798734
3271,000000	0,800563
3270,000000	0,801579
3269,000000	0,801848
3268,000000	0,801787
3267,000000	0,801807
3266,000000	0,802073
3265,000000	0,802458
3264,000000	0,802641
3263,000000	0,802356
3262,000000	0,801662
3261,000000	0,800944
3260,000000	0,800553
3259,000000	0,800469
3258,000000	0,800398
3257,000000	0,800197
3256,000000	0,800091
3255,000000	0,800444
3254,000000	0,801380
3253,000000	0,802650
3252,000000	0,803849
3251,000000	0,804685
3250,000000	0,805010
3249,000000	0,804686
3248,000000	0,803641
3247,000000	0,802191
3246,000000	0,801139
3245,000000	0,801261
3244,000000	0,802566
3243,000000	0,804208
3242,000000	0,805260
3241,000000	0,805479
3240,000000	0,805287
3239,000000	0,805194
3238,000000	0,805370
3237,000000	0,805703
3236,000000	0,806019
3235,000000	0,806235
3234,000000	0,806367
3233,000000	0,806421
3232,000000	0,806307
3231,000000	0,805971
3230,000000	0,805707
3229,000000	0,806123
3228,000000	0,807576
3227,000000	0,809618
3226,000000	0,811207
3225,000000	0,811540
3224,000000	0,810611
3223,000000	0,809060
3222,000000	0,807669
3221,000000	0,806985
3220,000000	0,807135
3219,000000	0,807760
3218,000000	0,808247
3217,000000	0,808255
3216,000000	0,808017
3215,000000	0,808037
3214,000000	0,808460
3213,000000	0,808915
3212,000000	0,809040
3211,000000	0,809048
3210,000000	0,809582
3209,000000	0,810997
3208,000000	0,812912
3207,000000	0,814566
3206,000000	0,815524
3205,000000	0,815932
3204,000000	0,816105
3203,000000	0,816068
3202,000000	0,815579
3201,000000	0,814551
3200,000000	0,813323
3199,000000	0,812515
3198,000000	0,812626
3197,000000	0,813711
3196,000000	0,815374
3195,000000	0,817060
3194,000000	0,818421
3193,000000	0,819428
3192,000000	0,820170
3191,000000	0,820611
3190,000000	0,820600
3189,000000	0,820080
3188,000000	0,819247
3187,000000	0,818482
3186,000000	0,818159
3185,000000	0,818431
3184,000000	0,819104
3183,000000	0,819686
3182,000000	0,819664
3181,000000	0,818917
3180,000000	0,817918
3179,000000	0,817503
3178,000000	0,818257
3177,000000	0,819996
3176,000000	0,821875
3175,000000	0,823064
3174,000000	0,823384
3173,000000	0,823283
3172,000000	0,823322
3171,000000	0,823748
3170,000000	0,824487
3169,000000	0,825292
3168,000000	0,825852
3167,000000	0,825933
3166,000000	0,825588
3165,000000	0,825200
3164,000000	0,825195
3163,000000	0,825701
3162,000000	0,826502
3161,000000	0,827235
3160,000000	0,827590
3159,000000	0,827456
3158,000000	0,827037
3157,000000	0,826776
3156,000000	0,827007
3155,000000	0,827658
3154,000000	0,828386
3153,000000	0,828961
3152,000000	0,829373
3151,000000	0,829608
3150,000000	0,829559
3149,000000	0,829269
3148,000000	0,829065
3147,000000	0,829257
3146,000000	0,829788
3145,000000	0,830370
3144,000000	0,830914
3143,000000	0,831588
3142,000000	0,832417
3141,000000	0,833082
3140,000000	0,833281
3139,000000	0,833090
3138,000000	0,832738
3137,000000	0,832163
3136,000000	0,831148
3135,000000	0,829972
3134,000000	0,829521
3133,000000	0,830435
3132,000000	0,832269
3131,000000	0,833830
3130,000000	0,834343
3129,000000	0,834034
3128,000000	0,833543
3127,000000	0,833104
3126,000000	0,832574
3125,000000	0,832030
3124,000000	0,831920
3123,000000	0,832464
3122,000000	0,833176
3121,000000	0,833251
3120,000000	0,832418
3119,000000	0,831265
3118,000000	0,830657
3117,000000	0,830932
3116,000000	0,831753
3115,000000	0,832649
3114,000000	0,833487
3113,000000	0,834384
3112,000000	0,835353
3111,000000	0,836239
3110,000000	0,836969
3109,000000	0,837678
3108,000000	0,838504
3107,000000	0,839321
3106,000000	0,839730
3105,000000	0,839321
3104,000000	0,838045
3103,000000	0,836449
3102,000000	0,835473
3101,000000	0,835742
3100,000000	0,836948
3099,000000	0,838067
3098,000000	0,838386
3097,000000	0,838218
3096,000000	0,838485
3095,000000	0,839679
3094,000000	0,841398
3093,000000	0,842892
3092,000000	0,843832
3091,000000	0,844457
3090,000000	0,845113
3089,000000	0,845823
3088,000000	0,846323
3087,000000	0,846411
3086,000000	0,846192
3085,000000	0,845929
3084,000000	0,845715
3083,000000	0,845379
3082,000000	0,844790
3081,000000	0,844171
3080,000000	0,843951
3079,000000	0,844335
3078,000000	0,845138
3077,000000	0,846075
3076,000000	0,847052
3075,000000	0,848076
3074,000000	0,849002
3073,000000	0,849557
3072,000000	0,849565
3071,000000	0,849023
3070,000000	0,847992
3069,000000	0,846578
3068,000000	0,845061
3067,000000	0,843890
3066,000000	0,843449
3065,000000	0,843888
3064,000000	0,845152
3063,000000	0,847002
3062,000000	0,848904
3061,000000	0,850096
3060,000000	0,850073
3059,000000	0,849116
3058,000000	0,848174
3057,000000	0,848132
3056,000000	0,849171
3055,000000	0,850778
3054,000000	0,852215
3053,000000	0,852968
3052,000000	0,852927
3051,000000	0,852378
3050,000000	0,851839
3049,000000	0,851800
3048,000000	0,852484
3047,000000	0,853768
3046,000000	0,855241
3045,000000	0,856370
3044,000000	0,856789
3043,000000	0,856593
3042,000000	0,856323
3041,000000	0,856514
3040,000000	0,857172
3039,000000	0,857718
3038,000000	0,857502
3037,000000	0,856339
3036,000000	0,854570
3035,000000	0,852697
3034,000000	0,851135
3033,000000	0,850289
3032,000000	0,850589
3031,000000	0,852157
3030,000000	0,854403
3029,000000	0,856243
3028,000000	0,856954
3027,000000	0,856743
3026,000000	0,856363
3025,000000	0,856265
3024,000000	0,856346
3023,000000	0,856376
3022,000000	0,856329
3021,000000	0,856194
3020,000000	0,855795
3019,000000	0,855063
3018,000000	0,854307
3017,000000	0,853961
3016,000000	0,854120
3015,000000	0,854558
3014,000000	0,855165
3013,000000	0,856129
3012,000000	0,857638
3011,000000	0,859589
3010,000000	0,861658
3009,000000	0,863533
3008,000000	0,864987
3007,000000	0,865908
3006,000000	0,866412
3005,000000	0,866872
3004,000000	0,867690
3003,000000	0,868983
3002,000000	0,870509
3001,000000	0,871831
3000,000000	0,872548
2999,000000	0,872460
2998,000000	0,871700
2997,000000	0,870728
2996,000000	0,870090
2995,000000	0,870078
2994,000000	0,870595
2993,000000	0,871352
2992,000000	0,872100
2991,000000	0,872677
2990,000000	0,872918
2989,000000	0,872720
2988,000000	0,872234
2987,000000	0,871853
2986,000000	0,871907
2985,000000	0,872361
2984,000000	0,872895
2983,000000	0,873218
2982,000000	0,873252
2981,000000	0,873057
2980,000000	0,872707
2979,000000	0,872261
2978,000000	0,871731
2977,000000	0,871055
2976,000000	0,870162
2975,000000	0,869113
2974,000000	0,868104
2973,000000	0,867258
2972,000000	0,866487
2971,000000	0,865601
2970,000000	0,864518
2969,000000	0,863310
2968,000000	0,862087
2967,000000	0,860873
2966,000000	0,859595
2965,000000	0,858184
2964,000000	0,856719
2963,000000	0,855464
2962,000000	0,854711
2961,000000	0,854545
2960,000000	0,854800
2959,000000	0,855214
2958,000000	0,855580
2957,000000	0,855770
2956,000000	0,855762
2955,000000	0,855649
2954,000000	0,855542
2953,000000	0,855442
2952,000000	0,855296
2951,000000	0,855142
2950,000000	0,855047
2949,000000	0,854912
2948,000000	0,854537
2947,000000	0,853943
2946,000000	0,853414
2945,000000	0,853070
2944,000000	0,852594
2943,000000	0,851603
2942,000000	0,850148
2941,000000	0,848639
2940,000000	0,847321
2939,000000	0,846067
2938,000000	0,844664
2937,000000	0,843085
2936,000000	0,841475
2935,000000	0,840044
2934,000000	0,839018
2933,000000	0,838488
2932,000000	0,838226
2931,000000	0,837789
2930,000000	0,836922
2929,000000	0,835850
2928,000000	0,835146
2927,000000	0,835368
2926,000000	0,836742
2925,000000	0,839039
2924,000000	0,841679
2923,000000	0,844113
2922,000000	0,846237
2921,000000	0,848386
2920,000000	0,850889
2919,000000	0,853689
2918,000000	0,856419
2917,000000	0,858765
2916,000000	0,860673
2915,000000	0,862303
2914,000000	0,863878
2913,000000	0,865553
2912,000000	0,867334
2911,000000	0,869093
2910,000000	0,870711
2909,000000	0,872173
2908,000000	0,873487
2907,000000	0,874581
2906,000000	0,875397
2905,000000	0,876112
2904,000000	0,877113
2903,000000	0,878655
2902,000000	0,880552
2901,000000	0,882322
2900,000000	0,883635
2899,000000	0,884552
2898,000000	0,885314
2897,000000	0,886028
2896,000000	0,886631
2895,000000	0,887125
2894,000000	0,887720
2893,000000	0,888698
2892,000000	0,890140
2891,000000	0,891764
2890,000000	0,893034
2889,000000	0,893505
2888,000000	0,893188
2887,000000	0,892565
2886,000000	0,892206
2885,000000	0,892348
2884,000000	0,892872
2883,000000	0,893552
2882,000000	0,894170
2881,000000	0,894476
2880,000000	0,894299
2879,000000	0,893788
2878,000000	0,893360
2877,000000	0,893229
2876,000000	0,893097
2875,000000	0,892459
2874,000000	0,891180
2873,000000	0,889658
2872,000000	0,888426
2871,000000	0,887697
2870,000000	0,887280
2869,000000	0,886819
2868,000000	0,886031
2867,000000	0,884772
2866,000000	0,883007
2865,000000	0,880836
2864,000000	0,878605
2863,000000	0,876837
2862,000000	0,875905
2861,000000	0,875784
2860,000000	0,876224
2859,000000	0,877129
2858,000000	0,878572
2857,000000	0,880430
2856,000000	0,882313
2855,000000	0,883979
2854,000000	0,885651
2853,000000	0,887680
2852,000000	0,890038
2851,000000	0,892347
2850,000000	0,894345
2849,000000	0,896103
2848,000000	0,897802
2847,000000	0,899518
2846,000000	0,901278
2845,000000	0,903101
2844,000000	0,904908
2843,000000	0,906535
2842,000000	0,907951
2841,000000	0,909357
2840,000000	0,910984
2839,000000	0,912828
2838,000000	0,914654
2837,000000	0,916201
2836,000000	0,917356
2835,000000	0,918178
2834,000000	0,918847
2833,000000	0,919547
2832,000000	0,920355
2831,000000	0,921229
2830,000000	0,922106
2829,000000	0,922984
2828,000000	0,923866
2827,000000	0,924689
2826,000000	0,925381
2825,000000	0,925977
2824,000000	0,926631
2823,000000	0,927460
2822,000000	0,928424
2821,000000	0,929367
2820,000000	0,930168
2819,000000	0,930799
2818,000000	0,931276
2817,000000	0,931611
2816,000000	0,931848
2815,000000	0,932071
2814,000000	0,932357
2813,000000	0,932740
2812,000000	0,933233
2811,000000	0,933817
2810,000000	0,934381
2809,000000	0,934758
2808,000000	0,934920
2807,000000	0,935078
2806,000000	0,935481
2805,000000	0,936130
2804,000000	0,936787
2803,000000	0,937256
2802,000000	0,937560
2801,000000	0,937861
2800,000000	0,938277
2799,000000	0,938781
2798,000000	0,939211
2797,000000	0,939384
2796,000000	0,939299
2795,000000	0,939236
2794,000000	0,939545
2793,000000	0,940328
2792,000000	0,941388
2791,000000	0,942455
2790,000000	0,943378
2789,000000	0,944122
2788,000000	0,944714
2787,000000	0,945226
2786,000000	0,945697
2785,000000	0,946093
2784,000000	0,946412
2783,000000	0,946813
2782,000000	0,947460
2781,000000	0,948236
2780,000000	0,948811
2779,000000	0,949060
2778,000000	0,949243
2777,000000	0,949692
2776,000000	0,950453
2775,000000	0,951323
2774,000000	0,952096
2773,000000	0,952652
2772,000000	0,952939
2771,000000	0,953041
2770,000000	0,953186
2769,000000	0,953559
2768,000000	0,954102
2767,000000	0,954622
2766,000000	0,955044
2765,000000	0,955488
2764,000000	0,956078
2763,000000	0,956757
2762,000000	0,957312
2761,000000	0,957590
2760,000000	0,957701
2759,000000	0,957958
2758,000000	0,958543
2757,000000	0,959284
2756,000000	0,959870
2755,000000	0,960235
2754,000000	0,960540
2753,000000	0,960818
2752,000000	0,960874
2751,000000	0,960655
2750,000000	0,960482
2749,000000	0,960718
2748,000000	0,961335
2747,000000	0,961959
2746,000000	0,962281
2745,000000	0,962314
2744,000000	0,962318
2743,000000	0,962605
2742,000000	0,963330
2741,000000	0,964344
2740,000000	0,965287
2739,000000	0,965901
2738,000000	0,966221
2737,000000	0,966438
2736,000000	0,966685
2735,000000	0,967027
2734,000000	0,967496
2733,000000	0,968019
2732,000000	0,968426
2731,000000	0,968677
2730,000000	0,968996
2729,000000	0,969609
2728,000000	0,970407
2727,000000	0,971011
2726,000000	0,971177
2725,000000	0,971023
2724,000000	0,970869
2723,000000	0,970965
2722,000000	0,971342
2721,000000	0,971834
2720,000000	0,972239
2719,000000	0,972514
2718,000000	0,972812
2717,000000	0,973270
2716,000000	0,973820
2715,000000	0,974264
2714,000000	0,974486
2713,000000	0,974535
2712,000000	0,974554
2711,000000	0,974687
2710,000000	0,975003
2709,000000	0,975432
2708,000000	0,975812
2707,000000	0,976044
2706,000000	0,976172
2705,000000	0,976283
2704,000000	0,976414
2703,000000	0,976618
2702,000000	0,976997
2701,000000	0,977566
2700,000000	0,978149
2699,000000	0,978512
2698,000000	0,978592
2697,000000	0,978564
2696,000000	0,978705
2695,000000	0,979226
2694,000000	0,980133
2693,000000	0,981218
2692,000000	0,982220
2691,000000	0,983027
2690,000000	0,983677
2689,000000	0,984178
2688,000000	0,984466
2687,000000	0,984552
2686,000000	0,984564
2685,000000	0,984581
2684,000000	0,984575
2683,000000	0,984586
2682,000000	0,984795
2681,000000	0,985283
2680,000000	0,985845
2679,000000	0,986171
2678,000000	0,986165
2677,000000	0,985997
2676,000000	0,985909
2675,000000	0,986072
2674,000000	0,986514
2673,000000	0,987086
2672,000000	0,987535
2671,000000	0,987693
2670,000000	0,987574
2669,000000	0,987287
2668,000000	0,986963
2667,000000	0,986771
2666,000000	0,986849
2665,000000	0,987153
2664,000000	0,987529
2663,000000	0,987976
2662,000000	0,988629
2661,000000	0,989418
2660,000000	0,989977
2659,000000	0,990090
2658,000000	0,989986
2657,000000	0,989980
2656,000000	0,990007
2655,000000	0,989795
2654,000000	0,989381
2653,000000	0,989157
2652,000000	0,989404
2651,000000	0,990049
2650,000000	0,990875
2649,000000	0,991724
2648,000000	0,992431
2647,000000	0,992780
2646,000000	0,992649
2645,000000	0,992151
2644,000000	0,991577
2643,000000	0,991222
2642,000000	0,991250
2641,000000	0,991616
2640,000000	0,992153
2639,000000	0,992742
2638,000000	0,993374
2637,000000	0,994011
2636,000000	0,994538
2635,000000	0,994928
2634,000000	0,995299
2633,000000	0,995644
2632,000000	0,995657
2631,000000	0,995091
2630,000000	0,994219
2629,000000	0,993680
2628,000000	0,993818
2627,000000	0,994389
2626,000000	0,994944
2625,000000	0,995297
2624,000000	0,995555
2623,000000	0,995859
2622,000000	0,996267
2621,000000	0,996768
2620,000000	0,997296
2619,000000	0,997747
2618,000000	0,998047
2617,000000	0,998197
2616,000000	0,998235
2615,000000	0,998170
2614,000000	0,997988
2613,000000	0,997718
2612,000000	0,997484
2611,000000	0,997485
2610,000000	0,997860
2609,000000	0,998528
2608,000000	0,999222
2607,000000	0,999699
2606,000000	0,999909
2605,000000	0,999909
2604,000000	0,999738
2603,000000	0,999454
2602,000000	0,999212
2601,000000	0,999182
2600,000000	0,999377
2599,000000	0,999659
2598,000000	0,999892
2597,000000	1,000026
2596,000000	1,000038
2595,000000	0,999888
2594,000000	0,999592
2593,000000	0,999287
2592,000000	0,999161
2591,000000	0,999299
2590,000000	0,999577
2589,000000	0,999768
2588,000000	0,999773
2587,000000	0,999735
2586,000000	0,999843
2585,000000	1,000061
2584,000000	1,000168
2583,000000	1,000081
2582,000000	0,999997
2581,000000	1,000156
2580,000000	1,000551
2579,000000	1,000955
2578,000000	1,001180
2577,000000	1,001239
2576,000000	1,001302
2575,000000	1,001513
2574,000000	1,001829
2573,000000	1,002040
2572,000000	1,002025
2571,000000	1,001946
2570,000000	1,002044
2569,000000	1,002292
2568,000000	1,002424
2567,000000	1,002341
2566,000000	1,002262
2565,000000	1,002381
2564,000000	1,002580
2563,000000	1,002642
2562,000000	1,002591
2561,000000	1,002603
2560,000000	1,002683
2559,000000	1,002637
2558,000000	1,002365
2557,000000	1,002035
2556,000000	1,001949
2555,000000	1,002273
2554,000000	1,002878
2553,000000	1,003387
2552,000000	1,003464
2551,000000	1,003124
2550,000000	1,002723
2549,000000	1,002582
2548,000000	1,002692
2547,000000	1,002813
2546,000000	1,002777
2545,000000	1,002598
2544,000000	1,002394
2543,000000	1,002257
2542,000000	1,002155
2541,000000	1,001952
2540,000000	1,001602
2539,000000	1,001359
2538,000000	1,001599
2537,000000	1,002339
2536,000000	1,003093
2535,000000	1,003325
2534,000000	1,002976
2533,000000	1,002420
2532,000000	1,002020
2531,000000	1,001850
2530,000000	1,001763
2529,000000	1,001585
2528,000000	1,001264
2527,000000	1,000929
2526,000000	1,000772
2525,000000	1,000839
2524,000000	1,001015
2523,000000	1,001213
2522,000000	1,001438
2521,000000	1,001603
2520,000000	1,001495
2519,000000	1,001063
2518,000000	1,000598
2517,000000	1,000443
2516,000000	1,000617
2515,000000	1,000868
2514,000000	1,001013
2513,000000	1,001058
2512,000000	1,001065
2511,000000	1,001057
2510,000000	1,001033
2509,000000	1,000932
2508,000000	1,000599
2507,000000	0,999939
2506,000000	0,999099
2505,000000	0,998417
2504,000000	0,998158
2503,000000	0,998362
2502,000000	0,998856
2501,000000	0,999366
2500,000000	0,999676
2499,000000	0,999750
2498,000000	0,999706
2497,000000	0,999619
2496,000000	0,999442
2495,000000	0,999133
2494,000000	0,998757
2493,000000	0,998379
2492,000000	0,997977
2491,000000	0,997568
2490,000000	0,997329
2489,000000	0,997427
2488,000000	0,997746
2487,000000	0,997914
2486,000000	0,997627
2485,000000	0,996914
2484,000000	0,996102
2483,000000	0,995511
2482,000000	0,995172
2481,000000	0,994852
2480,000000	0,994430
2479,000000	0,994152
2478,000000	0,994366
2477,000000	0,995007
2476,000000	0,995551
2475,000000	0,995551
2474,000000	0,995052
2473,000000	0,994419
2472,000000	0,993929
2471,000000	0,993637
2470,000000	0,993504
2469,000000	0,993476
2468,000000	0,993504
2467,000000	0,993587
2466,000000	0,993747
2465,000000	0,993944
2464,000000	0,994080
2463,000000	0,994104
2462,000000	0,993995
2461,000000	0,993678
2460,000000	0,993119
2459,000000	0,992537
2458,000000	0,992310
2457,000000	0,992584
2456,000000	0,993147
2455,000000	0,993720
2454,000000	0,994151
2453,000000	0,994296
2452,000000	0,993997
2451,000000	0,993344
2450,000000	0,992726
2449,000000	0,992449
2448,000000	0,992465
2447,000000	0,992613
2446,000000	0,992887
2445,000000	0,993284
2444,000000	0,993604
2443,000000	0,993649
2442,000000	0,993471
2441,000000	0,993238
2440,000000	0,993006
2439,000000	0,992818
2438,000000	0,992827
2437,000000	0,993083
2436,000000	0,993325
2435,000000	0,993242
2434,000000	0,992880
2433,000000	0,992578
2432,000000	0,992569
2431,000000	0,992823
2430,000000	0,993163
2429,000000	0,993353
2428,000000	0,993193
2427,000000	0,992740
2426,000000	0,992344
2425,000000	0,992253
2424,000000	0,992291
2423,000000	0,992141
2422,000000	0,991811
2421,000000	0,991566
2420,000000	0,991465
2419,000000	0,991283
2418,000000	0,990893
2417,000000	0,990472
2416,000000	0,990274
2415,000000	0,990391
2414,000000	0,990786
2413,000000	0,991347
2412,000000	0,991866
2411,000000	0,992083
2410,000000	0,991856
2409,000000	0,991245
2408,000000	0,990460
2407,000000	0,989768
2406,000000	0,989376
2405,000000	0,989307
2404,000000	0,989438
2403,000000	0,989697
2402,000000	0,990099
2401,000000	0,990523
2400,000000	0,990651
2399,000000	0,990336
2398,000000	0,989885
2397,000000	0,989761
2396,000000	0,990069
2395,000000	0,990524
2394,000000	0,990811
2393,000000	0,990737
2392,000000	0,990095
2391,000000	0,988580
2390,000000	0,985887
2389,000000	0,981592
2388,000000	0,974932
2387,000000	0,964893
2386,000000	0,950381
2385,000000	0,930514
2384,000000	0,904678
2383,000000	0,872764
2382,000000	0,835438
2381,000000	0,793762
2380,000000	0,748952
2379,000000	0,702286
2378,000000	0,655235
2377,000000	0,609192
2376,000000	0,564887
2375,000000	0,522502
2374,000000	0,482294
2373,000000	0,444920
2372,000000	0,410880
2371,000000	0,380155
2370,000000	0,352438
2369,000000	0,327617
2368,000000	0,305815
2367,000000	0,286999
2366,000000	0,271066
2365,000000	0,257977
2364,000000	0,247674
2363,000000	0,240039
2362,000000	0,234988
2361,000000	0,232795
2360,000000	0,233823
2359,000000	0,238139
2358,000000	0,245840
2357,000000	0,257442
2356,000000	0,273921
2355,000000	0,296297
2354,000000	0,325760
2353,000000	0,363719
2352,000000	0,409397
2351,000000	0,456107
2350,000000	0,490845
2349,000000	0,501118
2348,000000	0,484111
2347,000000	0,449451
2346,000000	0,412105
2345,000000	0,382486
2344,000000	0,362874
2343,000000	0,350867
2342,000000	0,344183
2341,000000	0,341728
2340,000000	0,342587
2339,000000	0,345481
2338,000000	0,349371
2337,000000	0,353539
2336,000000	0,357292
2335,000000	0,360005
2334,000000	0,361616
2333,000000	0,362931
2332,000000	0,365278
2331,000000	0,369916
2330,000000	0,377485
2329,000000	0,387637
2328,000000	0,399118
2327,000000	0,410367
2326,000000	0,420366
2325,000000	0,429289
2324,000000	0,438432
2323,000000	0,449513
2322,000000	0,463709
2321,000000	0,481241
2320,000000	0,501688
2319,000000	0,524250
2318,000000	0,547518
2317,000000	0,569437
2316,000000	0,588288
2315,000000	0,603994
2314,000000	0,618141
2313,000000	0,632663
2312,000000	0,648601
2311,000000	0,665993
2310,000000	0,684345
2309,000000	0,703041
2308,000000	0,721614
2307,000000	0,739943
2306,000000	0,758030
2305,000000	0,775548
2304,000000	0,791834
2303,000000	0,806427
2302,000000	0,819354
2301,000000	0,830924
2300,000000	0,841485
2299,000000	0,851492
2298,000000	0,861336
2297,000000	0,870941
2296,000000	0,879832
2295,000000	0,887752
2294,000000	0,895033
2293,000000	0,902203
2292,000000	0,909516
2291,000000	0,916972
2290,000000	0,924448
2289,000000	0,931670
2288,000000	0,938329
2287,000000	0,944335
2286,000000	0,949700
2285,000000	0,954066
2284,000000	0,956809
2283,000000	0,957818
2282,000000	0,957749
2281,000000	0,957293
2280,000000	0,956511
2279,000000	0,955201
2278,000000	0,953547
2277,000000	0,952012
2276,000000	0,950873
2275,000000	0,950177
2274,000000	0,949932
2273,000000	0,949965
2272,000000	0,949826
2271,000000	0,949209
2270,000000	0,948387
2269,000000	0,947931
2268,000000	0,948109
2267,000000	0,948797
2266,000000	0,949798
2265,000000	0,950943
2264,000000	0,952034
2263,000000	0,952987
2262,000000	0,953997
2261,000000	0,955279
2260,000000	0,956713
2259,000000	0,957965
2258,000000	0,958904
2257,000000	0,959689
2256,000000	0,960493
2255,000000	0,961332
2254,000000	0,962136
2253,000000	0,962865
2252,000000	0,963576
2251,000000	0,964408
2250,000000	0,965421
2249,000000	0,966458
2248,000000	0,967304
2247,000000	0,967982
2246,000000	0,968633
2245,000000	0,969131
2244,000000	0,969178
2243,000000	0,968863
2242,000000	0,968739
2241,000000	0,969141
2240,000000	0,969790
2239,000000	0,970288
2238,000000	0,970639
2237,000000	0,970990
2236,000000	0,971226
2235,000000	0,971203
2234,000000	0,971108
2233,000000	0,971224
2232,000000	0,971482
2231,000000	0,971597
2230,000000	0,971490
2229,000000	0,971286
2228,000000	0,971040
2227,000000	0,970754
2226,000000	0,970553
2225,000000	0,970529
2224,000000	0,970525
2223,000000	0,970307
2222,000000	0,969877
2221,000000	0,969414
2220,000000	0,969038
2219,000000	0,968806
2218,000000	0,968780
2217,000000	0,968888
2216,000000	0,968899
2215,000000	0,968733
2214,000000	0,968611
2213,000000	0,968679
2212,000000	0,968695
2211,000000	0,968344
2210,000000	0,967673
2209,000000	0,966964
2208,000000	0,966350
2207,000000	0,965839
2206,000000	0,965512
2205,000000	0,965396
2204,000000	0,965278
2203,000000	0,964949
2202,000000	0,964530
2201,000000	0,964287
2200,000000	0,964209
2199,000000	0,964027
2198,000000	0,963584
2197,000000	0,963010
2196,000000	0,962594
2195,000000	0,962582
2194,000000	0,962955
2193,000000	0,963308
2192,000000	0,963168
2191,000000	0,962552
2190,000000	0,961947
2189,000000	0,961608
2188,000000	0,961238
2187,000000	0,960597
2186,000000	0,960045
2185,000000	0,960039
2184,000000	0,960383
2183,000000	0,960433
2182,000000	0,959890
2181,000000	0,959037
2180,000000	0,958273
2179,000000	0,957786
2178,000000	0,957580
2177,000000	0,957477
2176,000000	0,957157
2175,000000	0,956480
2174,000000	0,955705
2173,000000	0,955175
2172,000000	0,954904
2171,000000	0,954711
2170,000000	0,954572
2169,000000	0,954540
2168,000000	0,954472
2167,000000	0,954172
2166,000000	0,953712
2165,000000	0,953311
2164,000000	0,952993
2163,000000	0,952640
2162,000000	0,952250
2161,000000	0,951863
2160,000000	0,951349
2159,000000	0,950613
2158,000000	0,949894
2157,000000	0,949543
2156,000000	0,949539
2155,000000	0,949522
2154,000000	0,949256
2153,000000	0,948791
2152,000000	0,948257
2151,000000	0,947779
2150,000000	0,947531
2149,000000	0,947559
2148,000000	0,947585
2147,000000	0,947245
2146,000000	0,946542
2145,000000	0,945819
2144,000000	0,945316
2143,000000	0,944981
2142,000000	0,944692
2141,000000	0,944419
2140,000000	0,944125
2139,000000	0,943710
2138,000000	0,943124
2137,000000	0,942473
2136,000000	0,942016
2135,000000	0,942044
2134,000000	0,942615
2133,000000	0,943338
2132,000000	0,943648
2131,000000	0,943401
2130,000000	0,943005
2129,000000	0,942803
2128,000000	0,942615
2127,000000	0,942129
2126,000000	0,941468
2125,000000	0,941021
2124,000000	0,940846
2123,000000	0,940651
2122,000000	0,940328
2121,000000	0,940138
2120,000000	0,940284
2119,000000	0,940556
2118,000000	0,940545
2117,000000	0,940083
2116,000000	0,939400
2115,000000	0,938902
2114,000000	0,938815
2113,000000	0,939043
2112,000000	0,939329
2111,000000	0,939484
2110,000000	0,939395
2109,000000	0,938986
2108,000000	0,938361
2107,000000	0,937881
2106,000000	0,937794
2105,000000	0,937852
2104,000000	0,937631
2103,000000	0,937185
2102,000000	0,936994
2101,000000	0,937222
2100,000000	0,937499
2099,000000	0,937565
2098,000000	0,937626
2097,000000	0,937868
2096,000000	0,938000
2095,000000	0,937619
2094,000000	0,936701
2093,000000	0,935505
2092,000000	0,934313
2091,000000	0,933477
2090,000000	0,933376
2089,000000	0,934005
2088,000000	0,934886
2087,000000	0,935601
2086,000000	0,936157
2085,000000	0,936632
2084,000000	0,936854
2083,000000	0,936692
2082,000000	0,936350
2081,000000	0,936078
2080,000000	0,935897
2079,000000	0,935799
2078,000000	0,935886
2077,000000	0,936061
2076,000000	0,935980
2075,000000	0,935571
2074,000000	0,935226
2073,000000	0,935216
2072,000000	0,935338
2071,000000	0,935331
2070,000000	0,935087
2069,000000	0,934171
2068,000000	0,931897
2067,000000	0,928553
2066,000000	0,925924
2065,000000	0,925717
2064,000000	0,927710
2063,000000	0,930123
2062,000000	0,931624
2061,000000	0,932231
2060,000000	0,932487
2059,000000	0,932642
2058,000000	0,932771
2057,000000	0,933018
2056,000000	0,933383
2055,000000	0,933650
2054,000000	0,933701
2053,000000	0,933662
2052,000000	0,933665
2051,000000	0,933669
2050,000000	0,933530
2049,000000	0,933115
2048,000000	0,932416
2047,000000	0,931607
2046,000000	0,930787
2045,000000	0,929612
2044,000000	0,927622
2043,000000	0,925208
2042,000000	0,923748
2041,000000	0,924262
2040,000000	0,926204
2039,000000	0,928036
2038,000000	0,928784
2037,000000	0,928606
2036,000000	0,928167
2035,000000	0,927999
2034,000000	0,928296
2033,000000	0,928786
2032,000000	0,928852
2031,000000	0,928182
2030,000000	0,927187
2029,000000	0,926450
2028,000000	0,925997
2027,000000	0,925497
2026,000000	0,924931
2025,000000	0,924586
2024,000000	0,924553
2023,000000	0,924565
2022,000000	0,924040
2021,000000	0,921997
2020,000000	0,917615
2019,000000	0,911687
2018,000000	0,907080
2017,000000	0,906628
2016,000000	0,910376
2015,000000	0,915587
2014,000000	0,919510
2013,000000	0,921386
2012,000000	0,921929
2011,000000	0,921926
2010,000000	0,921798
2009,000000	0,921779
2008,000000	0,921842
2007,000000	0,921744
2006,000000	0,921425
2005,000000	0,921103
2004,000000	0,920855
2003,000000	0,920513
2002,000000	0,920019
2001,000000	0,919501
2000,000000	0,918989
1999,000000	0,918516
1998,000000	0,918285
1997,000000	0,917782
1996,000000	0,914875
1995,000000	0,907346
1994,000000	0,896214
1993,000000	0,886467
1992,000000	0,883072
1991,000000	0,886467
1990,000000	0,892979
1989,000000	0,899142
1988,000000	0,904225
1987,000000	0,908785
1986,000000	0,912531
1985,000000	0,914660
1984,000000	0,915293
1983,000000	0,915392
1982,000000	0,915563
1981,000000	0,915713
1980,000000	0,915670
1979,000000	0,915447
1978,000000	0,915058
1977,000000	0,914535
1976,000000	0,914066
1975,000000	0,913795
1974,000000	0,913616
1973,000000	0,913332
1972,000000	0,912442
1971,000000	0,909577
1970,000000	0,903228
1969,000000	0,894184
1968,000000	0,886590
1967,000000	0,884921
1966,000000	0,889676
1965,000000	0,897022
1964,000000	0,902798
1963,000000	0,905781
1962,000000	0,907042
1961,000000	0,907707
1960,000000	0,908169
1959,000000	0,908381
1958,000000	0,907982
1957,000000	0,906707
1956,000000	0,905208
1955,000000	0,904800
1954,000000	0,905938
1953,000000	0,907705
1952,000000	0,909062
1951,000000	0,909651
1950,000000	0,909132
1949,000000	0,906956
1948,000000	0,903154
1947,000000	0,897774
1946,000000	0,889272
1945,000000	0,876051
1944,000000	0,861154
1943,000000	0,852848
1942,000000	0,857467
1941,000000	0,872502
1940,000000	0,888992
1939,000000	0,900181
1938,000000	0,905599
1937,000000	0,907725
1936,000000	0,908177
1935,000000	0,907748
1934,000000	0,907455
1933,000000	0,907907
1932,000000	0,908680
1931,000000	0,909138
1930,000000	0,909280
1929,000000	0,909305
1928,000000	0,908633
1927,000000	0,905336
1926,000000	0,896887
1925,000000	0,883279
1924,000000	0,869682
1923,000000	0,862929
1922,000000	0,863069
1921,000000	0,861478
1920,000000	0,851434
1919,000000	0,838654
1918,000000	0,836345
1917,000000	0,849802
1916,000000	0,870883
1915,000000	0,887900
1914,000000	0,895861
1913,000000	0,895744
1912,000000	0,889615
1911,000000	0,880640
1910,000000	0,874216
1909,000000	0,874384
1908,000000	0,879904
1907,000000	0,886518
1906,000000	0,891769
1905,000000	0,895636
1904,000000	0,898198
1903,000000	0,899385
1902,000000	0,899998
1901,000000	0,900708
1900,000000	0,900442
1899,000000	0,897307
1898,000000	0,890726
1897,000000	0,882282
1896,000000	0,875293
1895,000000	0,873079
1894,000000	0,875118
1893,000000	0,874880
1892,000000	0,865578
1891,000000	0,849679
1890,000000	0,839033
1889,000000	0,842547
1888,000000	0,856760
1887,000000	0,871177
1886,000000	0,879878
1885,000000	0,884281
1884,000000	0,887146
1883,000000	0,889044
1882,000000	0,889973
1881,000000	0,890403
1880,000000	0,890226
1879,000000	0,889224
1878,000000	0,888307
1877,000000	0,888447
1876,000000	0,889018
1875,000000	0,888379
1874,000000	0,884392
1873,000000	0,872418
1872,000000	0,846701
1871,000000	0,808497
1870,000000	0,771442
1869,000000	0,753313
1868,000000	0,761456
1867,000000	0,788332
1866,000000	0,820207
1865,000000	0,846871
1864,000000	0,863937
1863,000000	0,871606
1862,000000	0,873398
1861,000000	0,873434
1860,000000	0,873395
1859,000000	0,873113
1858,000000	0,873236
1857,000000	0,874770
1856,000000	0,876719
1855,000000	0,877145
1854,000000	0,876328
1853,000000	0,875679
1852,000000	0,873900
1851,000000	0,868051
1850,000000	0,857743
1849,000000	0,843934
1848,000000	0,823411
1847,000000	0,790919
1846,000000	0,750510
1845,000000	0,720138
1844,000000	0,718716
1843,000000	0,748252
1842,000000	0,791436
1841,000000	0,826745
1840,000000	0,844158
1839,000000	0,847491
1838,000000	0,845796
1837,000000	0,845260
1836,000000	0,847305
1835,000000	0,849177
1834,000000	0,843859
1833,000000	0,823235
1832,000000	0,787344
1831,000000	0,750828
1830,000000	0,733383
1829,000000	0,740082
1828,000000	0,755467
1827,000000	0,762258
1826,000000	0,761126
1825,000000	0,766528
1824,000000	0,786030
1823,000000	0,811724
1822,000000	0,831892
1821,000000	0,842542
1820,000000	0,845829
1819,000000	0,844380
1818,000000	0,841373
1817,000000	0,840831
1816,000000	0,843058
1815,000000	0,842322
1814,000000	0,832835
1813,000000	0,815950
1812,000000	0,799184
1811,000000	0,789968
1810,000000	0,791369
1809,000000	0,801398
1808,000000	0,814298
1807,000000	0,823728
1806,000000	0,826023
1805,000000	0,819855
1804,000000	0,804256
1803,000000	0,780726
1802,000000	0,756903
1801,000000	0,743350
1800,000000	0,744631
1799,000000	0,755985
1798,000000	0,768824
1797,000000	0,774849
1796,000000	0,765719
1795,000000	0,736597
1794,000000	0,695442
1793,000000	0,663521
1792,000000	0,660915
1791,000000	0,690379
1790,000000	0,736294
1789,000000	0,777036
1788,000000	0,797793
1787,000000	0,797430
1786,000000	0,787253
1785,000000	0,780210
1784,000000	0,778795
1783,000000	0,775863
1782,000000	0,767958
1781,000000	0,762074
1780,000000	0,765692
1779,000000	0,775527
1778,000000	0,780922
1777,000000	0,773344
1776,000000	0,748038
1775,000000	0,703554
1774,000000	0,648874
1773,000000	0,606515
1772,000000	0,597032
1771,000000	0,618954
1770,000000	0,652237
1769,000000	0,682104
1768,000000	0,710717
1767,000000	0,742813
1766,000000	0,769314
1765,000000	0,773741
1764,000000	0,752418
1763,000000	0,722119
1762,000000	0,705721
1761,000000	0,711189
1760,000000	0,726025
1759,000000	0,732419
1758,000000	0,727551
1757,000000	0,725154
1756,000000	0,734467
1755,000000	0,743797
1754,000000	0,731708
1753,000000	0,692920
1752,000000	0,645411
1751,000000	0,611552
1750,000000	0,600437
1749,000000	0,609035
1748,000000	0,630734
1747,000000	0,656957
1746,000000	0,677528
1745,000000	0,686898
1744,000000	0,687037
1743,000000	0,680475
1742,000000	0,666337
1741,000000	0,649001
1740,000000	0,642156
1739,000000	0,652327
1738,000000	0,660707
1737,000000	0,637461
1736,000000	0,578347
1735,000000	0,517631
1734,000000	0,496528
1733,000000	0,524241
1732,000000	0,576590
1731,000000	0,626503
1730,000000	0,665830
1729,000000	0,698964
1728,000000	0,726869
1727,000000	0,744068
1726,000000	0,747441
1725,000000	0,741636
1724,000000	0,734752
1723,000000	0,727965
1722,000000	0,710922
1721,000000	0,669071
1720,000000	0,600694
1719,000000	0,526265
1718,000000	0,476127
1717,000000	0,467119
1716,000000	0,493476
1715,000000	0,538952
1714,000000	0,590607
1713,000000	0,638986
1712,000000	0,674026
1711,000000	0,689184
1710,000000	0,685903
1709,000000	0,668126
1708,000000	0,637506
1707,000000	0,600900
1706,000000	0,574885
1705,000000	0,568026
1704,000000	0,562141
1703,000000	0,528115
1702,000000	0,465461
1701,000000	0,410786
1700,000000	0,396540
1699,000000	0,413985
1698,000000	0,431098
1697,000000	0,437580
1696,000000	0,454998
1695,000000	0,502408
1694,000000	0,567857
1693,000000	0,620384
1692,000000	0,640693
1691,000000	0,634738
1690,000000	0,620011
1689,000000	0,604046
1688,000000	0,575808
1687,000000	0,520514
1686,000000	0,445798
1685,000000	0,387418
1684,000000	0,380281
1683,000000	0,425008
1682,000000	0,489963
1681,000000	0,544675
1680,000000	0,579121
1679,000000	0,591883
1678,000000	0,578631
1677,000000	0,543616
1676,000000	0,509960
1675,000000	0,501090
1674,000000	0,513881
1673,000000	0,521798
1672,000000	0,506757
1671,000000	0,479240
1670,000000	0,465662
1669,000000	0,482742
1668,000000	0,524617
1667,000000	0,567984
1666,000000	0,588124
1665,000000	0,576714
1664,000000	0,549655
1663,000000	0,534109
1662,000000	0,544180
1661,000000	0,571010
1660,000000	0,595599
1659,000000	0,604669
1658,000000	0,590798
1657,000000	0,545090
1656,000000	0,464130
1655,000000	0,367280
1654,000000	0,297296
1653,000000	0,290820
1652,000000	0,344336
1651,000000	0,413432
1650,000000	0,448906
1649,000000	0,436765
1648,000000	0,403956
1647,000000	0,389973
1646,000000	0,414089
1645,000000	0,466080
1644,000000	0,520458
1643,000000	0,557563
1642,000000	0,572590
1641,000000	0,569654
1640,000000	0,550159
1639,000000	0,510488
1638,000000	0,453510
1637,000000	0,399081
1636,000000	0,376115
1635,000000	0,399730
1634,000000	0,457105
1633,000000	0,517677
1632,000000	0,555470
1631,000000	0,562934
1630,000000	0,549435
1629,000000	0,531222
1628,000000	0,519813
1627,000000	0,514517
1626,000000	0,505609
1625,000000	0,488545
1624,000000	0,473721
1623,000000	0,477114
1622,000000	0,500029
1621,000000	0,522191
1620,000000	0,519054
1619,000000	0,485940
1618,000000	0,443890
1617,000000	0,422896
1616,000000	0,437996
1615,000000	0,479037
1614,000000	0,521232
1613,000000	0,545399
1612,000000	0,549383
1611,000000	0,543129
1610,000000	0,536356
1609,000000	0,533118
1608,000000	0,534095
1607,000000	0,538605
1606,000000	0,543727
1605,000000	0,545824
1604,000000	0,544675
1603,000000	0,543973
1602,000000	0,546487
1601,000000	0,550786
1600,000000	0,553772
1599,000000	0,554075
1598,000000	0,551818
1597,000000	0,547458
1596,000000	0,542661
1595,000000	0,540280
1594,000000	0,541409
1593,000000	0,543738
1592,000000	0,544611
1591,000000	0,544386
1590,000000	0,544984
1589,000000	0,546563
1588,000000	0,547790
1587,000000	0,548377
1586,000000	0,548964
1585,000000	0,549091
1584,000000	0,547788
1583,000000	0,545810
1582,000000	0,544292
1581,000000	0,539529
1580,000000	0,522213
1579,000000	0,485644
1578,000000	0,437138
1577,000000	0,399077
1576,000000	0,394146
1575,000000	0,424965
1574,000000	0,467668
1573,000000	0,489554
1572,000000	0,476938
1571,000000	0,446248
1570,000000	0,426841
1569,000000	0,433775
1568,000000	0,457613
1567,000000	0,479047
1566,000000	0,488547
1565,000000	0,489342
1564,000000	0,483020
1563,000000	0,458405
1562,000000	0,401740
1561,000000	0,319650
1560,000000	0,246248
1559,000000	0,218868
1558,000000	0,245156
1557,000000	0,299032
1556,000000	0,349665
1555,000000	0,387350
1554,000000	0,418198
1553,000000	0,444081
1552,000000	0,459230
1551,000000	0,464045
1550,000000	0,468174
1549,000000	0,476303
1548,000000	0,478947
1547,000000	0,463943
1546,000000	0,431427
1545,000000	0,391867
1544,000000	0,352624
1543,000000	0,313233
1542,000000	0,274500
1541,000000	0,247422
1540,000000	0,249308
1539,000000	0,288427
1538,000000	0,350817
1537,000000	0,404508
1536,000000	0,423344
1535,000000	0,410198
1534,000000	0,393142
1533,000000	0,396992
1532,000000	0,420727
1531,000000	0,444129
1530,000000	0,450109
1529,000000	0,437126
1528,000000	0,414697
1527,000000	0,393910
1526,000000	0,379817
1525,000000	0,367482
1524,000000	0,347417
1523,000000	0,319597
1522,000000	0,299159
1521,000000	0,300881
1520,000000	0,320410
1519,000000	0,339160
1518,000000	0,348087
1517,000000	0,356751
1516,000000	0,376069
1515,000000	0,401453
1514,000000	0,419140
1513,000000	0,422659
1512,000000	0,414199
1511,000000	0,393633
1510,000000	0,356223
1509,000000	0,304428
1508,000000	0,256392
1507,000000	0,237528
1506,000000	0,261918
1505,000000	0,320635
1504,000000	0,386789
1503,000000	0,433125
1502,000000	0,447857
1501,000000	0,436344
1500,000000	0,410903
1499,000000	0,381990
1498,000000	0,358656
1497,000000	0,350448
1496,000000	0,362450
1495,000000	0,387450
1494,000000	0,407679
1493,000000	0,407712
1492,000000	0,387090
1491,000000	0,360300
1490,000000	0,344922
1489,000000	0,349270
1488,000000	0,370278
1487,000000	0,399998
1486,000000	0,431224
1485,000000	0,457275
1484,000000	0,472064
1483,000000	0,474854
1482,000000	0,472566
1481,000000	0,472290
1480,000000	0,472033
1479,000000	0,463543
1478,000000	0,443730
1477,000000	0,417660
1476,000000	0,390237
1475,000000	0,362031
1474,000000	0,337042
1473,000000	0,327455
1472,000000	0,343965
1471,000000	0,382498
1470,000000	0,424967
1469,000000	0,452248
1468,000000	0,455146
1467,000000	0,437608
1466,000000	0,414253
1465,000000	0,402428
1464,000000	0,409473
1463,000000	0,425807
1462,000000	0,431942
1461,000000	0,413569
1460,000000	0,370497
1459,000000	0,316688
1458,000000	0,274513
1457,000000	0,264032
1456,000000	0,289344
1455,000000	0,334601
1454,000000	0,376976
1453,000000	0,403998
1452,000000	0,416493
1451,000000	0,418700
1450,000000	0,413265
1449,000000	0,405391
1448,000000	0,403935
1447,000000	0,413808
1446,000000	0,430562
1445,000000	0,445496
1444,000000	0,454146
1443,000000	0,457963
1442,000000	0,459009
1441,000000	0,454853
1440,000000	0,439192
1439,000000	0,409172
1438,000000	0,373741
1437,000000	0,351638
1436,000000	0,356105
1435,000000	0,381478
1434,000000	0,407973
1433,000000	0,420216
1432,000000	0,417946
1431,000000	0,410631
1430,000000	0,407232
1429,000000	0,411226
1428,000000	0,419570
1427,000000	0,424425
1426,000000	0,420153
1425,000000	0,410173
1424,000000	0,402407
1423,000000	0,396586
1422,000000	0,382806
1421,000000	0,356379
1420,000000	0,328687
1419,000000	0,317537
1418,000000	0,329108
1417,000000	0,354388
1416,000000	0,380130
1415,000000	0,398432
1414,000000	0,407274
1413,000000	0,408184
1412,000000	0,405146
1411,000000	0,402214
1410,000000	0,400168
1409,000000	0,396472
1408,000000	0,388683
1407,000000	0,377176
1406,000000	0,365673
1405,000000	0,359493
1404,000000	0,360973
1403,000000	0,365187
1402,000000	0,362955
1401,000000	0,350773
1400,000000	0,335461
1399,000000	0,325623
1398,000000	0,321444
1397,000000	0,317146
1396,000000	0,311710
1395,000000	0,311585
1394,000000	0,321749
1393,000000	0,338586
1392,000000	0,352805
1391,000000	0,356834
1390,000000	0,349091
1389,000000	0,334472
1388,000000	0,322169
1387,000000	0,319827
1386,000000	0,327409
1385,000000	0,337965
1384,000000	0,344982
1383,000000	0,347191
1382,000000	0,346431
1381,000000	0,343965
1380,000000	0,340399
1379,000000	0,336428
1378,000000	0,331410
1377,000000	0,323216
1376,000000	0,311984
1375,000000	0,302659
1374,000000	0,301070
1373,000000	0,307609
1372,000000	0,316458
1371,000000	0,321456
1370,000000	0,321392
1369,000000	0,319478
1368,000000	0,318672
1367,000000	0,317961
1366,000000	0,313401
1365,000000	0,302943
1364,000000	0,290003
1363,000000	0,281505
1362,000000	0,281817
1361,000000	0,289234
1360,000000	0,298436
1359,000000	0,305148
1358,000000	0,308082
1357,000000	0,307896
1356,000000	0,306014
1355,000000	0,304139
1354,000000	0,303345
1353,000000	0,303187
1352,000000	0,302369
1351,000000	0,300436
1350,000000	0,298244
1349,000000	0,296774
1348,000000	0,296076
1347,000000	0,295615
1346,000000	0,295021
1345,000000	0,293925
1344,000000	0,291285
1343,000000	0,285694
1342,000000	0,277007
1341,000000	0,267541
1340,000000	0,261033
1339,000000	0,259873
1338,000000	0,263343
1337,000000	0,268725
1336,000000	0,273680
1335,000000	0,277286
1334,000000	0,279418
1333,000000	0,280086
1332,000000	0,279593
1331,000000	0,278593
1330,000000	0,277601
1329,000000	0,276678
1328,000000	0,275724
1327,000000	0,274716
1326,000000	0,273554
1325,000000	0,272053
1324,000000	0,270150
1323,000000	0,267806
1322,000000	0,264750
1321,000000	0,260840
1320,000000	0,256820
1319,000000	0,254102
1318,000000	0,253391
1317,000000	0,253867
1316,000000	0,254046
1315,000000	0,253299
1314,000000	0,252224
1313,000000	0,251696
1312,000000	0,251908
1311,000000	0,252277
1310,000000	0,252068
1309,000000	0,251061
1308,000000	0,249644
1307,000000	0,248308
1306,000000	0,247128
1305,000000	0,245852
1304,000000	0,244384
1303,000000	0,242913
1302,000000	0,241581
1301,000000	0,240307
1300,000000	0,238991
1299,000000	0,237671
1298,000000	0,236401
1297,000000	0,235160
1296,000000	0,233944
1295,000000	0,232781
1294,000000	0,231606
1293,000000	0,230313
1292,000000	0,228932
1291,000000	0,227604
1290,000000	0,226364
1289,000000	0,225148
1288,000000	0,224047
1287,000000	0,223300
1286,000000	0,222959
1285,000000	0,222714
1284,000000	0,222161
1283,000000	0,221120
1282,000000	0,219677
1281,000000	0,218046
1280,000000	0,216453
1279,000000	0,215003
1278,000000	0,213595
1277,000000	0,212030
1276,000000	0,210204
1275,000000	0,208125
1274,000000	0,205847
1273,000000	0,203518
1272,000000	0,201431
1271,000000	0,199839
1270,000000	0,198684
1269,000000	0,197647
1268,000000	0,196482
1267,000000	0,195148
1266,000000	0,193670
1265,000000	0,192026
1264,000000	0,190201
1263,000000	0,188243
1262,000000	0,186259
1261,000000	0,184499
1260,000000	0,183350
1259,000000	0,183009
1258,000000	0,183135
1257,000000	0,183073
1256,000000	0,182471
1255,000000	0,181513
1254,000000	0,180520
1253,000000	0,179540
1252,000000	0,178437
1251,000000	0,177180
1250,000000	0,175904
1249,000000	0,174748
1248,000000	0,173726
1247,000000	0,172693
1246,000000	0,171429
1245,000000	0,169873
1244,000000	0,168273
1243,000000	0,166989
1242,000000	0,166073
1241,000000	0,165197
1240,000000	0,164055
1239,000000	0,162738
1238,000000	0,161567
1237,000000	0,160653
1236,000000	0,159734
1235,000000	0,158452
1234,000000	0,156719
1233,000000	0,154825
1232,000000	0,153199
1231,000000	0,152026
1230,000000	0,151042
1229,000000	0,149769
1228,000000	0,147999
1227,000000	0,146028
1226,000000	0,144350
1225,000000	0,143144
1224,000000	0,142131
1223,000000	0,140930
1222,000000	0,139477
1221,000000	0,138050
1220,000000	0,136883
1219,000000	0,135859
1218,000000	0,134641
1217,000000	0,133061
1216,000000	0,131311
1215,000000	0,129703
1214,000000	0,128365
1213,000000	0,127205
1212,000000	0,126077
1211,000000	0,124881
1210,000000	0,123556
1209,000000	0,122112
1208,000000	0,120695
1207,000000	0,119511
1206,000000	0,118641
1205,000000	0,117957
1204,000000	0,117248
1203,000000	0,116399
1202,000000	0,115419
1201,000000	0,114352
1200,000000	0,113196
1199,000000	0,111914
1198,000000	0,110520
1197,000000	0,109128
1196,000000	0,107883
1195,000000	0,106813
1194,000000	0,105771
1193,000000	0,104582
1192,000000	0,103264
1191,000000	0,102030
1190,000000	0,101062
1189,000000	0,100320
1188,000000	0,099602
1187,000000	0,098767
1186,000000	0,097835
1185,000000	0,096886
1184,000000	0,095912
1183,000000	0,094798
1182,000000	0,093454
1181,000000	0,091951
1180,000000	0,090516
1179,000000	0,089348
1178,000000	0,088450
1177,000000	0,087650
1176,000000	0,086821
1175,000000	0,086001
1174,000000	0,085267
1173,000000	0,084544
1172,000000	0,083655
1171,000000	0,082530
1170,000000	0,081276
1169,000000	0,080016
1168,000000	0,078744
1167,000000	0,077438
1166,000000	0,076204
1165,000000	0,075164
1164,000000	0,074256
1163,000000	0,073289
1162,000000	0,072231
1161,000000	0,071274
1160,000000	0,070563
1159,000000	0,069963
1158,000000	0,069188
1157,000000	0,068150
1156,000000	0,067068
1155,000000	0,066196
1154,000000	0,065505
1153,000000	0,064715
1152,000000	0,063631
1151,000000	0,062387
1150,000000	0,061314
1149,000000	0,060573
1148,000000	0,060017
1147,000000	0,059426
1146,000000	0,058746
1145,000000	0,058030
1144,000000	0,057250
1143,000000	0,056304
1142,000000	0,055194
1141,000000	0,054064
1140,000000	0,053045
1139,000000	0,052182
1138,000000	0,051480
1137,000000	0,050908
1136,000000	0,050356
1135,000000	0,049702
1134,000000	0,048921
1133,000000	0,048093
1132,000000	0,047308
1131,000000	0,046657
1130,000000	0,046203
1129,000000	0,045879
1128,000000	0,045477
1127,000000	0,044855
1126,000000	0,044110
1125,000000	0,043420
1124,000000	0,042740
1123,000000	0,041818
1122,000000	0,040546
1121,000000	0,039131
1120,000000	0,037886
1119,000000	0,036995
1118,000000	0,036493
1117,000000	0,036306
1116,000000	0,036274
1115,000000	0,036175
1114,000000	0,035831
1113,000000	0,035197
1112,000000	0,034335
1111,000000	0,033360
1110,000000	0,032405
1109,000000	0,031552
1108,000000	0,030803
1107,000000	0,030148
1106,000000	0,029603
1105,000000	0,029100
1104,000000	0,028451
1103,000000	0,027561
1102,000000	0,026599
1101,000000	0,025779
1100,000000	0,025145
1099,000000	0,024640
1098,000000	0,024260
1097,000000	0,024039
1096,000000	0,023886
1095,000000	0,023608
1094,000000	0,023132
1093,000000	0,022571
1092,000000	0,022054
1091,000000	0,021661
1090,000000	0,021433
1089,000000	0,021277
1088,000000	0,020914
1087,000000	0,020164
1086,000000	0,019212
1085,000000	0,018399
1084,000000	0,017798
1083,000000	0,017245
1082,000000	0,016711
1081,000000	0,016331
1080,000000	0,016062
1079,000000	0,015654
1078,000000	0,015025
1077,000000	0,014403
1076,000000	0,014004
1075,000000	0,013727
1074,000000	0,013386
1073,000000	0,013028
1072,000000	0,012778
1071,000000	0,012575
1070,000000	0,012216
1069,000000	0,011577
1068,000000	0,010752
1067,000000	0,010016
1066,000000	0,009622
1065,000000	0,009544
1064,000000	0,009502
1063,000000	0,009306
1062,000000	0,009080
1061,000000	0,008998
1060,000000	0,008990
1059,000000	0,008909
1058,000000	0,008798
1057,000000	0,008667
1056,000000	0,008269
1055,000000	0,007416
1054,000000	0,006349
1053,000000	0,005509
1052,000000	0,005026
1051,000000	0,004714
1050,000000	0,004482
1049,000000	0,004468
1048,000000	0,004753
1047,000000	0,005068
1046,000000	0,005089
1045,000000	0,004849
1044,000000	0,004648
1043,000000	0,004682
1042,000000	0,004869
1041,000000	0,005122
1040,000000	0,005294
1039,000000	0,005163
1038,000000	0,004875
1037,000000	0,004817
1036,000000	0,005044
1035,000000	0,005245
1034,000000	0,005232
1033,000000	0,005047
1032,000000	0,004800
1031,000000	0,004570
1030,000000	0,004480
1029,000000	0,004721
1028,000000	0,005280
1027,000000	0,005882
1026,000000	0,006317
1025,000000	0,006576
1024,000000	0,006697
1023,000000	0,006758
1022,000000	0,006955
1021,000000	0,007434
1020,000000	0,008053
1019,000000	0,008527
1018,000000	0,008779
1017,000000	0,008957
1016,000000	0,009199
1015,000000	0,009615
1014,000000	0,010384
1013,000000	0,011548
1012,000000	0,012811
1011,000000	0,013814
1010,000000	0,014558
1009,000000	0,015273
1008,000000	0,016008
1007,000000	0,016699
1006,000000	0,017498
1005,000000	0,018647
1004,000000	0,020088
1003,000000	0,021515
1002,000000	0,022737
1001,000000	0,023786
1000,000000	0,024703
999,000000	0,025550
998,000000	0,026549
997,000000	0,027861
996,000000	0,029350
995,000000	0,030890
994,000000	0,032706
993,000000	0,035006
992,000000	0,037484
991,000000	0,039609
990,000000	0,041347
989,000000	0,043094
988,000000	0,045062
987,000000	0,047196
986,000000	0,049566
985,000000	0,052259
984,000000	0,054991
983,000000	0,057409
982,000000	0,059739
981,000000	0,062567
980,000000	0,065974
979,000000	0,069499
978,000000	0,072932
977,000000	0,076536
976,000000	0,080368
975,000000	0,084036
974,000000	0,087320
973,000000	0,090537
972,000000	0,094095
971,000000	0,098118
970,000000	0,102625
969,000000	0,107628
968,000000	0,112898
967,000000	0,118039
966,000000	0,122971
965,000000	0,127991
964,000000	0,133334
963,000000	0,139000
962,000000	0,145025
961,000000	0,151490
960,000000	0,158218
959,000000	0,164900
958,000000	0,171579
957,000000	0,178619
956,000000	0,186182
955,000000	0,194134
954,000000	0,202439
953,000000	0,211216
952,000000	0,220375
951,000000	0,229712
950,000000	0,239330
949,000000	0,249533
948,000000	0,260301
947,000000	0,271344
946,000000	0,282705
945,000000	0,294761
944,000000	0,307613
943,000000	0,320988
942,000000	0,334751
941,000000	0,349046
940,000000	0,363897
939,000000	0,379173
938,000000	0,395029
937,000000	0,411822
936,000000	0,429607
935,000000	0,448132
934,000000	0,467367
933,000000	0,487652
932,000000	0,509234
931,000000	0,532206
930,000000	0,556826
929,000000	0,583330
928,000000	0,611641
927,000000	0,641615
926,000000	0,673604
925,000000	0,708198
924,000000	0,745343
923,000000	0,784625
922,000000	0,826130
921,000000	0,870509
920,000000	0,918210
919,000000	0,969157
918,000000	1,023562
917,000000	1,082034
916,000000	1,144881
915,000000	1,211938
914,000000	1,282919
913,000000	1,357644
912,000000	1,435482
911,000000	1,515268
910,000000	1,595873
909,000000	1,676211
908,000000	1,754782
907,000000	1,829766
906,000000	1,899871
905,000000	1,964617
904,000000	2,024196
903,000000	2,079489
902,000000	2,132204
901,000000	2,184151
900,000000	2,235908
899,000000	2,286906
898,000000	2,336225
897,000000	2,382707
896,000000	2,424606
895,000000	2,460014
894,000000	2,488313
893,000000	2,510355
892,000000	2,527362
891,000000	2,540503
890,000000	2,551051
889,000000	2,560128
888,000000	2,567644
887,000000	2,572347
886,000000	2,573458
885,000000	2,571428
884,000000	2,567384
883,000000	2,562596
882,000000	2,558707
881,000000	2,557549
880,000000	2,560328
879,000000	2,567462
878,000000	2,579245
877,000000	2,595983
876,000000	2,617075
875,000000	2,641011
874,000000	2,666337
873,000000	2,692167
872,000000	2,717796
871,000000	2,742510
870,000000	2,766126
869,000000	2,788880
868,000000	2,810692
867,000000	2,831095
866,000000	2,849969
865,000000	2,867466
864,000000	2,883221
863,000000	2,896524
862,000000	2,907272
861,000000	2,916085
860,000000	2,923318
859,000000	2,928862
858,000000	2,933006
857,000000	2,936490
856,000000	2,939709
855,000000	2,942679
854,000000	2,945889
853,000000	2,950209
852,000000	2,955747
851,000000	2,961730
850,000000	2,967594
849,000000	2,973331
848,000000	2,978679
847,000000	2,983039
846,000000	2,986358
845,000000	2,989124
844,000000	2,991298
843,000000	2,992284
842,000000	2,992057
841,000000	2,991309
840,000000	2,990273
839,000000	2,988381
838,000000	2,985354
837,000000	2,981435
836,000000	2,976358
835,000000	2,969080
834,000000	2,958775
833,000000	2,945314
832,000000	2,928559
831,000000	2,908376
830,000000	2,885577
829,000000	2,861881
828,000000	2,838914
827,000000	2,818258
826,000000	2,802521
825,000000	2,794788
824,000000	2,796719
823,000000	2,807689
822,000000	2,825935
821,000000	2,849154
820,000000	2,873983
819,000000	2,896702
818,000000	2,915053
817,000000	2,928740
816,000000	2,938022
815,000000	2,943148
814,000000	2,945123
813,000000	2,945569
812,000000	2,945170
811,000000	2,943346
810,000000	2,939830
809,000000	2,935161
808,000000	2,929560
807,000000	2,922634
806,000000	2,914601
805,000000	2,906568
804,000000	2,899138
803,000000	2,892022
802,000000	2,885260
801,000000	2,879618
800,000000	2,875458
799,000000	2,872540
798,000000	2,871137
797,000000	2,871982
796,000000	2,874963
795,000000	2,879186
794,000000	2,884567
793,000000	2,891838
792,000000	2,900813
791,000000	2,910328
790,000000	2,920040
789,000000	2,930627
788,000000	2,941822
787,000000	2,952056
786,000000	2,960527
785,000000	2,967963
784,000000	2,974887
783,000000	2,980795
782,000000	2,985564
781,000000	2,989956
780,000000	2,994225
779,000000	2,997811
778,000000	3,000846
777,000000	3,004269
776,000000	3,007978
775,000000	3,010627
774,000000	3,011699
773,000000	3,012080
772,000000	3,012225
771,000000	3,011613
770,000000	3,010426
769,000000	3,009796
768,000000	3,009821
767,000000	3,009260
766,000000	3,007669
765,000000	3,005914
764,000000	3,004166
763,000000	3,001509
762,000000	2,998078
761,000000	2,995469
760,000000	2,994411
759,000000	2,994085
758,000000	2,994157
757,000000	2,995269
756,000000	2,997024
755,000000	2,997900
754,000000	2,997693
753,000000	2,997656
752,000000	2,997711
751,000000	2,996136
750,000000	2,992584
749,000000	2,988685
748,000000	2,985008
747,000000	2,980273
746,000000	2,974314
745,000000	2,968789
744,000000	2,964081
743,000000	2,958643
742,000000	2,952486
741,000000	2,948029
740,000000	2,946156
739,000000	2,944597
738,000000	2,941557
737,000000	2,937827
736,000000	2,933900
735,000000	2,928398
734,000000	2,920963
733,000000	2,913538
732,000000	2,907181
731,000000	2,900792
730,000000	2,894190
729,000000	2,888907
728,000000	2,884666
727,000000	2,879092
726,000000	2,871928
725,000000	2,864243
724,000000	2,851924
723,000000	2,827004
722,000000	2,790657
721,000000	2,759076
720,000000	2,749693
719,000000	2,763333
718,000000	2,784877
717,000000	2,799268
716,000000	2,801983
715,000000	2,796677
714,000000	2,788773
713,000000	2,781987
712,000000	2,776811
711,000000	2,771049
710,000000	2,762902
709,000000	2,752805
708,000000	2,741378
707,000000	2,728132
706,000000	2,713708
705,000000	2,700591
704,000000	2,689401
703,000000	2,677239
702,000000	2,661633
701,000000	2,643188
700,000000	2,622713
699,000000	2,599373
698,000000	2,573769
697,000000	2,548763
696,000000	2,524998
695,000000	2,499631
694,000000	2,471518
693,000000	2,442553
692,000000	2,412095
691,000000	2,376382
690,000000	2,336991
689,000000	2,303145
688,000000	2,281216
687,000000	2,267879
686,000000	2,257602
685,000000	2,250012
684,000000	2,244897
683,000000	2,237951
682,000000	2,227523
681,000000	2,218776
680,000000	2,214990
679,000000	2,212624
678,000000	2,210176
677,000000	2,212588
676,000000	2,221035
675,000000	2,229769
674,000000	2,235102
673,000000	2,225119
672,000000	2,151973
671,000000	1,954166
670,000000	1,650650
669,000000	1,391905
668,000000	1,358513
667,000000	1,584832
666,000000	1,916692
665,000000	2,162483
664,000000	2,252998
663,000000	2,245574
662,000000	2,214782
661,000000	2,186000
660,000000	2,158129
659,000000	2,135121
658,000000	2,120870
657,000000	2,109666
656,000000	2,096913
655,000000	2,086428
654,000000	2,080610
653,000000	2,074091
652,000000	2,062710
651,000000	2,049918
650,000000	2,040723
649,000000	2,036730
648,000000	2,038979
647,000000	2,047885
646,000000	2,058528
645,000000	2,063183
644,000000	2,060148
643,000000	2,053900
642,000000	2,045840
641,000000	2,031838
640,000000	2,008887
639,000000	1,976831
638,000000	1,931203
637,000000	1,862197
636,000000	1,763557
635,000000	1,638223
634,000000	1,495927
633,000000	1,352445
632,000000	1,232537
631,000000	1,164277
630,000000	1,162896
629,000000	1,220312
628,000000	1,313361
627,000000	1,418638
626,000000	1,519234
625,000000	1,605173
624,000000	1,672879
623,000000	1,723481
622,000000	1,757952
621,000000	1,774864
620,000000	1,774513
619,000000	1,764094
618,000000	1,755419
617,000000	1,757201
616,000000	1,769577
615,000000	1,785003
614,000000	1,794754
613,000000	1,795371
612,000000	1,789539
611,000000	1,781268
610,000000	1,771447
609,000000	1,759106
608,000000	1,744915
607,000000	1,731106
606,000000	1,719040
605,000000	1,708690
604,000000	1,699712
603,000000	1,691170
602,000000	1,681528
601,000000	1,670912
600,000000	1,662061
599,000000	1,656718
598,000000	1,652548
597,000000	1,645580
596,000000	1,634239
595,000000	1,618763
594,000000	1,599280
593,000000	1,578032
592,000000	1,561397
591,000000	1,554761
590,000000	1,555418
589,000000	1,554590
588,000000	1,546471
587,000000	1,532614
586,000000	1,517432
585,000000	1,502815
584,000000	1,487902
583,000000	1,471516
582,000000	1,453919
581,000000	1,437124
580,000000	1,422709
579,000000	1,408686
578,000000	1,390798
577,000000	1,369135
576,000000	1,350400
575,000000	1,339744
574,000000	1,332631
573,000000	1,318859
572,000000	1,293283
571,000000	1,258227
570,000000	1,217054
569,000000	1,171244
568,000000	1,123683
567,000000	1,078869
566,000000	1,038274
565,000000	0,999655
564,000000	0,961937
563,000000	0,927085
562,000000	0,896078
561,000000	0,867097
560,000000	0,838957
559,000000	0,812854
558,000000	0,789169
557,000000	0,766183
556,000000	0,743358
555,000000	0,722537
554,000000	0,704409
553,000000	0,686686
552,000000	0,667672
551,000000	0,648593
550,000000	0,630865
549,000000	0,613776
548,000000	0,596726
547,000000	0,581223
546,000000	0,568667
545,000000	0,558086
544,000000	0,547777
543,000000	0,537379
542,000000	0,526934
541,000000	0,515836
540,000000	0,503976
539,000000	0,492328
538,000000	0,481230
537,000000	0,469906
536,000000	0,458436
535,000000	0,448223
534,000000	0,439521
533,000000	0,430710
532,000000	0,420944
531,000000	0,411139
530,000000	0,401206
529,000000	0,388903
528,000000	0,373453
527,000000	0,358133
526,000000	0,347233
525,000000	0,341453
524,000000	0,337879
523,000000	0,333157
522,000000	0,325260
521,000000	0,313823
520,000000	0,300510
519,000000	0,288396
518,000000	0,279670
517,000000	0,274370
516,000000	0,271514
515,000000	0,270046
514,000000	0,268129
513,000000	0,263444
512,000000	0,255319
511,000000	0,245354
510,000000	0,235111
509,000000	0,224882
508,000000	0,215253
507,000000	0,207665
506,000000	0,201968
505,000000	0,195531
504,000000	0,186583
503,000000	0,176924
502,000000	0,169565
501,000000	0,164822
500,000000	0,160535
499,000000	0,154999
498,000000	0,147943
497,000000	0,139529
496,000000	0,130088
495,000000	0,120399
494,000000	0,110918
493,000000	0,101135
492,000000	0,090642
491,000000	0,080022
490,000000	0,069757
489,000000	0,059235
488,000000	0,047982
487,000000	0,036861
486,000000	0,027545
485,000000	0,022843
484,000000	0,029261
483,000000	0,057575
482,000000	0,115187
481,000000	0,196927
480,000000	0,285212
479,000000	0,360984
478,000000	0,414660
477,000000	0,446721
476,000000	0,460892
475,000000	0,460414
474,000000	0,450839
473,000000	0,441676
472,000000	0,441415
471,000000	0,450173
470,000000	0,459995
469,000000	0,463894
468,000000	0,462938
467,000000	0,462640
466,000000	0,464601
465,000000	0,465160
464,000000	0,461809
463,000000	0,456523
462,000000	0,450749
461,000000	0,440874
460,000000	0,423023
459,000000	0,401699
458,000000	0,389092
457,000000	0,393357
456,000000	0,409568
455,000000	0,424400
454,000000	0,429478
453,000000	0,427896
452,000000	0,427362
451,000000	0,430008
450,000000	0,431145
449,000000	0,426883
448,000000	0,419031
447,000000	0,411408
446,000000	0,404384
445,000000	0,395627
444,000000	0,385109
443,000000	0,376143
442,000000	0,371073
441,000000	0,367774
440,000000	0,361026
439,000000	0,346924
438,000000	0,326072
437,000000	0,303486
436,000000	0,285074
435,000000	0,272896
434,000000	0,264027
433,000000	0,254586
432,000000	0,243998
431,000000	0,234233
430,000000	0,226100
429,000000	0,218289
428,000000	0,209557
427,000000	0,199799
426,000000	0,189264
425,000000	0,178518
424,000000	0,168666
423,000000	0,159423
422,000000	0,147681
421,000000	0,131154
420,000000	0,113834
419,000000	0,104277
418,000000	0,106844
417,000000	0,116846
416,000000	0,125699
415,000000	0,128865
414,000000	0,127241
413,000000	0,123255
412,000000	0,118417
411,000000	0,113592
410,000000	0,109224
409,000000	0,105008
408,000000	0,100575
407,000000	0,096260
406,000000	0,092517
405,000000	0,089014
404,000000	0,085018
403,000000	0,080053
402,000000	0,073631
401,000000	0,065295
400,000000	0,055816
399,000000	0,047568
398,000000	0,042647
397,000000	0,041046
396,000000	0,041223
395,000000	0,041809
394,000000	0,042141
393,000000	0,041750
392,000000	0,040391
391,000000	0,038362
390,000000	0,036349
389,000000	0,035117
388,000000	0,035295
387,000000	0,036862
386,000000	0,038738
385,000000	0,039596
384,000000	0,039216
383,000000	0,038306
382,000000	0,037073
381,000000	0,034991
380,000000	0,032009
379,000000	0,028722
378,000000	0,025264
377,000000	0,021352
376,000000	0,017691
375,000000	0,015869
374,000000	0,016226
373,000000	0,017108
372,000000	0,016898
371,000000	0,015717
370,000000	0,014492
369,000000	0,013575
368,000000	0,012961
367,000000	0,012777
366,000000	0,012749
365,000000	0,012163
364,000000	0,010929
363,000000	0,009792
362,000000	0,009066
361,000000	0,008118
360,000000	0,006629
359,000000	0,005230
358,000000	0,004348
357,000000	0,003507
356,000000	0,002409
355,000000	0,001670
354,000000	0,001739
353,000000	0,002152
352,000000	0,002514
351,000000	0,003119
350,000000	0,003971
349,000000	0,004243
348,000000	0,003529
347,000000	0,002491
346,000000	0,001752
345,000000	0,001040
344,000000	0,000316
343,000000	0,000307
342,000000	0,000133
341,000000	0,000629
340,000000	0,000863
339,000000	0,001180
338,000000	0,001322
337,000000	0,001156
336,000000	0,000928
335,000000	0,000836
334,000000	0,000519
333,000000	0,000268
332,000000	0,000368
331,000000	0,000536
330,000000	0,000746
329,000000	0,000862
328,000000	0,001211
327,000000	0,001636
326,000000	0,001486
325,000000	0,001329
324,000000	0,001713
323,000000	0,002149
322,000000	0,002032
321,000000	0,001541
320,000000	0,001178
319,000000	0,001028
318,000000	0,000833
317,000000	0,000725
316,000000	0,000838
315,000000	0,000752
314,000000	0,000288
313,000000	0,000311
312,000000	0,000344
311,000000	0,000341
310,000000	0,000627
309,000000	0,001003
308,000000	0,001092
307,000000	0,001197
306,000000	0,001335
305,000000	0,001321
304,000000	0,001510
303,000000	0,002001
302,000000	0,002373
301,000000	0,002387
300,000000	0,001793
