PE IR       SUBTECH     SPECTRUM    ASCII       PEDS        4.00        
   -1
REF ZnO.ASC
25/06/17
10:46:22.00
25/06/17
10:46:22.00
Praktikum
Sample 028 By Praktikum date Dienstag, Juni 17 2025
300,000000
#HDR
-1
-1
#GR
cm-1
EGY
1.0
0.0
4000,000000
-1,000000
3701
8
1,927773
0,000141
#DATA
4000,000000	0,695263
3999,000000	0,695359
3998,000000	0,695062
3997,000000	0,694380
3996,000000	0,693557
3995,000000	0,692957
3994,000000	0,692790
3993,000000	0,693001
3992,000000	0,693457
3991,000000	0,694174
3990,000000	0,695269
3989,000000	0,696692
3988,000000	0,698070
3987,000000	0,698929
3986,000000	0,699094
3985,000000	0,698860
3984,000000	0,698730
3983,000000	0,698995
3982,000000	0,699578
3981,000000	0,700211
3980,000000	0,700679
3979,000000	0,700846
3978,000000	0,700592
3977,000000	0,699874
3976,000000	0,698889
3975,000000	0,698074
3974,000000	0,697813
3973,000000	0,698161
3972,000000	0,698875
3971,000000	0,699739
3970,000000	0,700811
3969,000000	0,702280
3968,000000	0,704066
3967,000000	0,705583
3966,000000	0,706036
3965,000000	0,705058
3964,000000	0,703129
3963,000000	0,701284
3962,000000	0,700337
3961,000000	0,700383
3960,000000	0,701044
3959,000000	0,702042
3958,000000	0,703412
3957,000000	0,705135
3956,000000	0,706733
3955,000000	0,707292
3954,000000	0,705846
3953,000000	0,701842
3952,000000	0,695603
3951,000000	0,688635
3950,000000	0,683267
3949,000000	0,681318
3948,000000	0,682524
3947,000000	0,684348
3946,000000	0,684005
3945,000000	0,681062
3944,000000	0,678119
3943,000000	0,678630
3942,000000	0,683865
3941,000000	0,692090
3940,000000	0,700369
3939,000000	0,706627
3938,000000	0,709948
3937,000000	0,709583
3936,000000	0,704722
3935,000000	0,695665
3934,000000	0,684810
3933,000000	0,676005
3932,000000	0,672381
3931,000000	0,674443
3930,000000	0,679694
3929,000000	0,684131
3928,000000	0,684912
3927,000000	0,682256
3926,000000	0,678926
3925,000000	0,677681
3924,000000	0,678830
3923,000000	0,680185
3922,000000	0,679112
3921,000000	0,674596
3920,000000	0,667940
3919,000000	0,662130
3918,000000	0,660626
3917,000000	0,665669
3916,000000	0,676914
3915,000000	0,691500
3914,000000	0,705732
3913,000000	0,717204
3912,000000	0,725196
3911,000000	0,729323
3910,000000	0,727996
3909,000000	0,718550
3908,000000	0,699132
3907,000000	0,670834
3906,000000	0,638242
3905,000000	0,607520
3904,000000	0,583401
3903,000000	0,567726
3902,000000	0,560641
3901,000000	0,562688
3900,000000	0,575114
3899,000000	0,597495
3898,000000	0,625571
3897,000000	0,651707
3896,000000	0,668127
3895,000000	0,670940
3894,000000	0,662551
3893,000000	0,650925
3892,000000	0,644798
3891,000000	0,647095
3890,000000	0,652189
3889,000000	0,651234
3888,000000	0,640962
3887,000000	0,627214
3886,000000	0,618701
3885,000000	0,617987
3884,000000	0,619880
3883,000000	0,618697
3882,000000	0,615700
3881,000000	0,618002
3880,000000	0,630202
3879,000000	0,648278
3878,000000	0,662391
3877,000000	0,665498
3876,000000	0,658463
3875,000000	0,646449
3874,000000	0,632128
3873,000000	0,614468
3872,000000	0,594306
3871,000000	0,578065
3870,000000	0,572933
3869,000000	0,578894
3868,000000	0,588044
3867,000000	0,592550
3866,000000	0,592041
3865,000000	0,592501
3864,000000	0,599514
3863,000000	0,613972
3862,000000	0,632698
3861,000000	0,650714
3860,000000	0,661996
3859,000000	0,659836
3858,000000	0,638820
3857,000000	0,598349
3856,000000	0,545900
3855,000000	0,496639
3854,000000	0,467496
3853,000000	0,468502
3852,000000	0,497893
3851,000000	0,544549
3850,000000	0,595119
3849,000000	0,639180
3848,000000	0,670257
3847,000000	0,685473
3846,000000	0,685845
3845,000000	0,675545
3844,000000	0,659059
3843,000000	0,638534
3842,000000	0,614193
3841,000000	0,587301
3840,000000	0,562238
3839,000000	0,545164
3838,000000	0,540615
3837,000000	0,548590
3836,000000	0,564641
3835,000000	0,582998
3834,000000	0,600457
3833,000000	0,617524
3832,000000	0,635815
3831,000000	0,654552
3830,000000	0,670184
3829,000000	0,679871
3828,000000	0,684230
3827,000000	0,685244
3826,000000	0,681420
3825,000000	0,667303
3824,000000	0,640175
3823,000000	0,606908
3822,000000	0,581050
3821,000000	0,571354
3820,000000	0,573937
3819,000000	0,578080
3818,000000	0,578988
3817,000000	0,583037
3816,000000	0,599950
3815,000000	0,631777
3814,000000	0,670712
3813,000000	0,705219
3812,000000	0,726359
3811,000000	0,729659
3810,000000	0,715876
3809,000000	0,692183
3808,000000	0,669951
3807,000000	0,656843
3806,000000	0,649844
3805,000000	0,638703
3804,000000	0,617975
3803,000000	0,594768
3802,000000	0,582605
3801,000000	0,588153
3800,000000	0,605851
3799,000000	0,625435
3798,000000	0,642656
3797,000000	0,660829
3796,000000	0,684082
3795,000000	0,711406
3794,000000	0,737713
3793,000000	0,758629
3792,000000	0,773107
3791,000000	0,782264
3790,000000	0,786945
3789,000000	0,786920
3788,000000	0,782103
3787,000000	0,774354
3786,000000	0,767126
3785,000000	0,762713
3784,000000	0,759570
3783,000000	0,753544
3782,000000	0,742677
3781,000000	0,730572
3780,000000	0,724296
3779,000000	0,728526
3778,000000	0,741966
3777,000000	0,758897
3776,000000	0,773073
3775,000000	0,779750
3774,000000	0,775771
3773,000000	0,760613
3772,000000	0,738544
3771,000000	0,717741
3770,000000	0,704836
3769,000000	0,700278
3768,000000	0,700209
3767,000000	0,702528
3766,000000	0,708669
3765,000000	0,718869
3764,000000	0,727957
3763,000000	0,728636
3762,000000	0,718480
3761,000000	0,702482
3760,000000	0,688694
3759,000000	0,682129
3758,000000	0,681762
3757,000000	0,681096
3756,000000	0,671311
3755,000000	0,646320
3754,000000	0,607219
3753,000000	0,562778
3752,000000	0,525416
3751,000000	0,504822
3750,000000	0,502346
3749,000000	0,509289
3748,000000	0,512256
3747,000000	0,504118
3746,000000	0,491460
3745,000000	0,489709
3744,000000	0,508939
3743,000000	0,544863
3742,000000	0,582720
3741,000000	0,607935
3740,000000	0,613039
3739,000000	0,598369
3738,000000	0,570646
3737,000000	0,540661
3736,000000	0,518843
3735,000000	0,511012
3734,000000	0,518138
3733,000000	0,538885
3732,000000	0,569938
3731,000000	0,604297
3730,000000	0,632509
3729,000000	0,648378
3728,000000	0,652966
3727,000000	0,652019
3726,000000	0,650359
3725,000000	0,649702
3724,000000	0,650846
3723,000000	0,655511
3722,000000	0,665194
3721,000000	0,679540
3720,000000	0,696647
3719,000000	0,714093
3718,000000	0,728428
3717,000000	0,734075
3716,000000	0,724846
3715,000000	0,698563
3714,000000	0,660674
3713,000000	0,622856
3712,000000	0,597355
3711,000000	0,591186
3710,000000	0,604335
3709,000000	0,631235
3708,000000	0,663316
3707,000000	0,691521
3706,000000	0,708527
3705,000000	0,711563
3704,000000	0,704120
3703,000000	0,694655
3702,000000	0,691868
3701,000000	0,699111
3700,000000	0,712978
3699,000000	0,727134
3698,000000	0,737270
3697,000000	0,742014
3696,000000	0,740044
3695,000000	0,728268
3694,000000	0,703911
3693,000000	0,667874
3692,000000	0,626020
3691,000000	0,588239
3690,000000	0,565563
3689,000000	0,565836
3688,000000	0,589159
3687,000000	0,627152
3686,000000	0,667746
3685,000000	0,701174
3684,000000	0,722378
3683,000000	0,729927
3682,000000	0,724494
3681,000000	0,707194
3680,000000	0,677831
3679,000000	0,635639
3678,000000	0,584775
3677,000000	0,538236
3676,000000	0,511991
3675,000000	0,511357
3674,000000	0,524961
3673,000000	0,535372
3672,000000	0,535740
3671,000000	0,535164
3670,000000	0,547876
3669,000000	0,579360
3668,000000	0,623030
3667,000000	0,667220
3666,000000	0,703129
3665,000000	0,727745
3664,000000	0,742235
3663,000000	0,749252
3662,000000	0,750278
3661,000000	0,744037
3660,000000	0,727957
3659,000000	0,702584
3658,000000	0,674995
3657,000000	0,655490
3656,000000	0,648387
3655,000000	0,645913
3654,000000	0,632892
3653,000000	0,599750
3652,000000	0,550996
3651,000000	0,502248
3650,000000	0,470239
3649,000000	0,464916
3648,000000	0,487507
3647,000000	0,531363
3646,000000	0,584140
3645,000000	0,632636
3644,000000	0,668882
3643,000000	0,692092
3642,000000	0,705544
3641,000000	0,712487
3640,000000	0,714977
3639,000000	0,714354
3638,000000	0,710863
3637,000000	0,703751
3636,000000	0,692939
3635,000000	0,679452
3634,000000	0,662285
3633,000000	0,636434
3632,000000	0,597899
3631,000000	0,552463
3630,000000	0,516743
3629,000000	0,507581
3628,000000	0,529270
3627,000000	0,571152
3626,000000	0,615865
3625,000000	0,648999
3624,000000	0,662749
3623,000000	0,655816
3622,000000	0,633210
3621,000000	0,605580
3620,000000	0,585204
3619,000000	0,579586
3618,000000	0,587050
3617,000000	0,598821
3616,000000	0,606356
3615,000000	0,607526
3614,000000	0,605990
3613,000000	0,605366
3612,000000	0,605226
3611,000000	0,603393
3610,000000	0,601085
3609,000000	0,603826
3608,000000	0,616515
3607,000000	0,638349
3606,000000	0,662711
3605,000000	0,681673
3604,000000	0,690658
3603,000000	0,690227
3602,000000	0,684700
3601,000000	0,678928
3600,000000	0,675140
3599,000000	0,672292
3598,000000	0,668321
3597,000000	0,663118
3596,000000	0,659401
3595,000000	0,660598
3594,000000	0,667294
3593,000000	0,674971
3592,000000	0,675614
3591,000000	0,663120
3590,000000	0,639268
3589,000000	0,614544
3588,000000	0,602071
3587,000000	0,609047
3586,000000	0,632782
3585,000000	0,663711
3584,000000	0,691928
3583,000000	0,712009
3582,000000	0,723766
3581,000000	0,729895
3580,000000	0,733209
3579,000000	0,735293
3578,000000	0,736745
3577,000000	0,737970
3576,000000	0,739574
3575,000000	0,741870
3574,000000	0,743837
3573,000000	0,742231
3572,000000	0,732065
3571,000000	0,709537
3570,000000	0,676223
3569,000000	0,640912
3568,000000	0,615956
3567,000000	0,610247
3566,000000	0,624041
3565,000000	0,649829
3564,000000	0,677719
3563,000000	0,700914
3562,000000	0,717587
3561,000000	0,729341
3560,000000	0,738502
3559,000000	0,746281
3558,000000	0,752301
3557,000000	0,755036
3556,000000	0,753125
3555,000000	0,746996
3554,000000	0,739543
3553,000000	0,734605
3552,000000	0,733892
3551,000000	0,735172
3550,000000	0,733960
3549,000000	0,727567
3548,000000	0,717742
3547,000000	0,709561
3546,000000	0,707792
3545,000000	0,713975
3544,000000	0,726193
3543,000000	0,740757
3542,000000	0,754019
3541,000000	0,763302
3540,000000	0,767280
3539,000000	0,766417
3538,000000	0,763116
3537,000000	0,760713
3536,000000	0,761369
3535,000000	0,764550
3534,000000	0,767491
3533,000000	0,767306
3532,000000	0,762811
3531,000000	0,754950
3530,000000	0,746047
3529,000000	0,738626
3528,000000	0,734163
3527,000000	0,732452
3526,000000	0,732367
3525,000000	0,733469
3524,000000	0,736654
3523,000000	0,742844
3522,000000	0,751328
3521,000000	0,759910
3520,000000	0,766753
3519,000000	0,771602
3518,000000	0,775203
3517,000000	0,778006
3516,000000	0,779739
3515,000000	0,779833
3514,000000	0,777819
3513,000000	0,773610
3512,000000	0,768067
3511,000000	0,763297
3510,000000	0,761610
3509,000000	0,763475
3508,000000	0,766479
3507,000000	0,766943
3506,000000	0,763026
3505,000000	0,756516
3504,000000	0,751602
3503,000000	0,751714
3502,000000	0,757117
3501,000000	0,764982
3500,000000	0,771694
3499,000000	0,775264
3498,000000	0,776158
3497,000000	0,776246
3496,000000	0,777130
3495,000000	0,779233
3494,000000	0,781935
3493,000000	0,784174
3492,000000	0,784974
3491,000000	0,783911
3490,000000	0,781503
3489,000000	0,779135
3488,000000	0,778157
3487,000000	0,778744
3486,000000	0,779642
3485,000000	0,779263
3484,000000	0,777201
3483,000000	0,774770
3482,000000	0,773991
3481,000000	0,775987
3480,000000	0,780125
3479,000000	0,784513
3478,000000	0,787415
3477,000000	0,788388
3476,000000	0,788350
3475,000000	0,788601
3474,000000	0,789735
3473,000000	0,791359
3472,000000	0,792694
3471,000000	0,793319
3470,000000	0,793389
3469,000000	0,793330
3468,000000	0,793433
3467,000000	0,793626
3466,000000	0,793532
3465,000000	0,792842
3464,000000	0,791780
3463,000000	0,791165
3462,000000	0,791786
3461,000000	0,793662
3460,000000	0,796009
3459,000000	0,797967
3458,000000	0,799253
3457,000000	0,800100
3456,000000	0,800839
3455,000000	0,801684
3454,000000	0,802722
3453,000000	0,803645
3452,000000	0,803450
3451,000000	0,800859
3450,000000	0,795592
3449,000000	0,789284
3448,000000	0,784770
3447,000000	0,784033
3446,000000	0,786733
3445,000000	0,790837
3444,000000	0,794540
3443,000000	0,797437
3442,000000	0,800016
3441,000000	0,802538
3440,000000	0,804783
3439,000000	0,806599
3438,000000	0,808173
3437,000000	0,809692
3436,000000	0,811023
3435,000000	0,811921
3434,000000	0,812386
3433,000000	0,812684
3432,000000	0,813064
3431,000000	0,813619
3430,000000	0,814330
3429,000000	0,815156
3428,000000	0,816036
3427,000000	0,816813
3426,000000	0,817141
3425,000000	0,816562
3424,000000	0,814843
3423,000000	0,812401
3422,000000	0,810314
3421,000000	0,809766
3420,000000	0,811327
3419,000000	0,814634
3418,000000	0,818669
3417,000000	0,822371
3416,000000	0,825132
3415,000000	0,826925
3414,000000	0,828082
3413,000000	0,828971
3412,000000	0,829820
3411,000000	0,830667
3410,000000	0,831367
3409,000000	0,831725
3408,000000	0,831740
3407,000000	0,831675
3406,000000	0,831806
3405,000000	0,832150
3404,000000	0,832551
3403,000000	0,832953
3402,000000	0,833407
3401,000000	0,833853
3400,000000	0,834122
3399,000000	0,834180
3398,000000	0,834173
3397,000000	0,834138
3396,000000	0,833904
3395,000000	0,833473
3394,000000	0,833368
3393,000000	0,834361
3392,000000	0,836740
3391,000000	0,839891
3390,000000	0,842646
3389,000000	0,844098
3388,000000	0,844197
3387,000000	0,843666
3386,000000	0,843388
3385,000000	0,843852
3384,000000	0,845034
3383,000000	0,846599
3382,000000	0,848095
3381,000000	0,849166
3380,000000	0,849799
3379,000000	0,850343
3378,000000	0,851138
3377,000000	0,852182
3376,000000	0,853291
3375,000000	0,854452
3374,000000	0,855744
3373,000000	0,856947
3372,000000	0,857541
3371,000000	0,857194
3370,000000	0,856053
3369,000000	0,854520
3368,000000	0,852972
3367,000000	0,851787
3366,000000	0,851351
3365,000000	0,851824
3364,000000	0,853002
3363,000000	0,854532
3362,000000	0,856158
3361,000000	0,857696
3360,000000	0,858933
3359,000000	0,859762
3358,000000	0,860344
3357,000000	0,860997
3356,000000	0,861935
3355,000000	0,863146
3354,000000	0,864429
3353,000000	0,865525
3352,000000	0,866309
3351,000000	0,866901
3350,000000	0,867516
3349,000000	0,868173
3348,000000	0,868679
3347,000000	0,868905
3346,000000	0,868947
3345,000000	0,868969
3344,000000	0,869033
3343,000000	0,869135
3342,000000	0,869268
3341,000000	0,869364
3340,000000	0,869315
3339,000000	0,869111
3338,000000	0,868898
3337,000000	0,868874
3336,000000	0,869232
3335,000000	0,870147
3334,000000	0,871597
3333,000000	0,873165
3332,000000	0,874272
3331,000000	0,874695
3330,000000	0,874721
3329,000000	0,874770
3328,000000	0,875064
3327,000000	0,875720
3326,000000	0,876818
3325,000000	0,878182
3324,000000	0,879311
3323,000000	0,879810
3322,000000	0,879830
3321,000000	0,879939
3320,000000	0,880589
3319,000000	0,881767
3318,000000	0,883037
3317,000000	0,883843
3316,000000	0,883916
3315,000000	0,883499
3314,000000	0,883072
3313,000000	0,882815
3312,000000	0,882525
3311,000000	0,882153
3310,000000	0,882147
3309,000000	0,883004
3308,000000	0,884640
3307,000000	0,886428
3306,000000	0,887810
3305,000000	0,888719
3304,000000	0,889444
3303,000000	0,890235
3302,000000	0,891043
3301,000000	0,891556
3300,000000	0,891542
3299,000000	0,891219
3298,000000	0,891175
3297,000000	0,891809
3296,000000	0,892907
3295,000000	0,893863
3294,000000	0,894249
3293,000000	0,894138
3292,000000	0,894009
3291,000000	0,894400
3290,000000	0,895525
3289,000000	0,897089
3288,000000	0,898516
3287,000000	0,899419
3286,000000	0,899828
3285,000000	0,899989
3284,000000	0,900122
3283,000000	0,900388
3282,000000	0,900880
3281,000000	0,901486
3280,000000	0,901867
3279,000000	0,901709
3278,000000	0,900973
3277,000000	0,899896
3276,000000	0,898885
3275,000000	0,898390
3274,000000	0,898685
3273,000000	0,899681
3272,000000	0,901077
3271,000000	0,902705
3270,000000	0,904544
3269,000000	0,906392
3268,000000	0,907849
3267,000000	0,908764
3266,000000	0,909466
3265,000000	0,910332
3264,000000	0,911319
3263,000000	0,912087
3262,000000	0,912450
3261,000000	0,912470
3260,000000	0,912227
3259,000000	0,911719
3258,000000	0,911004
3257,000000	0,910359
3256,000000	0,910272
3255,000000	0,911207
3254,000000	0,913175
3253,000000	0,915498
3252,000000	0,917242
3251,000000	0,917995
3250,000000	0,918043
3249,000000	0,917782
3248,000000	0,917276
3247,000000	0,916600
3246,000000	0,916280
3245,000000	0,916947
3244,000000	0,918588
3243,000000	0,920460
3242,000000	0,921802
3241,000000	0,922438
3240,000000	0,922700
3239,000000	0,922973
3238,000000	0,923401
3237,000000	0,923943
3236,000000	0,924546
3235,000000	0,925203
3234,000000	0,925854
3233,000000	0,926340
3232,000000	0,926573
3231,000000	0,926736
3230,000000	0,927207
3229,000000	0,928252
3228,000000	0,929860
3227,000000	0,931771
3226,000000	0,933552
3225,000000	0,934681
3224,000000	0,934835
3223,000000	0,934183
3222,000000	0,933313
3221,000000	0,932830
3220,000000	0,933048
3219,000000	0,933908
3218,000000	0,935002
3217,000000	0,935806
3216,000000	0,936149
3215,000000	0,936425
3214,000000	0,937095
3213,000000	0,938057
3212,000000	0,938872
3211,000000	0,939521
3210,000000	0,940527
3209,000000	0,942234
3208,000000	0,944366
3207,000000	0,946385
3206,000000	0,947942
3205,000000	0,948848
3204,000000	0,948995
3203,000000	0,948578
3202,000000	0,948060
3201,000000	0,947716
3200,000000	0,947481
3199,000000	0,947395
3198,000000	0,947834
3197,000000	0,949035
3196,000000	0,950658
3195,000000	0,952121
3194,000000	0,953170
3193,000000	0,953876
3192,000000	0,954327
3191,000000	0,954612
3190,000000	0,954926
3189,000000	0,955381
3188,000000	0,955860
3187,000000	0,956277
3186,000000	0,956870
3185,000000	0,957953
3184,000000	0,959428
3183,000000	0,960737
3182,000000	0,961261
3181,000000	0,960762
3180,000000	0,959612
3179,000000	0,958709
3178,000000	0,958923
3177,000000	0,960392
3176,000000	0,962476
3175,000000	0,964438
3174,000000	0,966017
3173,000000	0,967277
3172,000000	0,968263
3171,000000	0,969011
3170,000000	0,969626
3169,000000	0,970099
3168,000000	0,970258
3167,000000	0,970132
3166,000000	0,970158
3165,000000	0,970777
3164,000000	0,971960
3163,000000	0,973333
3162,000000	0,974585
3161,000000	0,975599
3160,000000	0,976368
3159,000000	0,977015
3158,000000	0,977734
3157,000000	0,978508
3156,000000	0,979074
3155,000000	0,979322
3154,000000	0,979542
3153,000000	0,980053
3152,000000	0,980818
3151,000000	0,981626
3150,000000	0,982459
3149,000000	0,983388
3148,000000	0,984308
3147,000000	0,985043
3146,000000	0,985627
3145,000000	0,986247
3144,000000	0,987017
3143,000000	0,987955
3142,000000	0,989055
3141,000000	0,990195
3140,000000	0,991147
3139,000000	0,991826
3138,000000	0,992324
3137,000000	0,992556
3136,000000	0,992179
3135,000000	0,991169
3134,000000	0,990235
3133,000000	0,990276
3132,000000	0,991479
3131,000000	0,993237
3130,000000	0,994831
3129,000000	0,995947
3128,000000	0,996598
3127,000000	0,996888
3126,000000	0,996895
3125,000000	0,996656
3124,000000	0,996245
3123,000000	0,995913
3122,000000	0,995980
3121,000000	0,996469
3120,000000	0,997013
3119,000000	0,997305
3118,000000	0,997472
3117,000000	0,997878
3116,000000	0,998722
3115,000000	1,000003
3114,000000	1,001621
3113,000000	1,003318
3112,000000	1,004729
3111,000000	1,005770
3110,000000	1,006801
3109,000000	1,008107
3108,000000	1,009389
3107,000000	1,010023
3106,000000	1,009739
3105,000000	1,008796
3104,000000	1,007673
3103,000000	1,006874
3102,000000	1,006886
3101,000000	1,007880
3100,000000	1,009434
3099,000000	1,010814
3098,000000	1,011683
3097,000000	1,012376
3096,000000	1,013481
3095,000000	1,015287
3094,000000	1,017585
3093,000000	1,019890
3092,000000	1,021826
3091,000000	1,023363
3090,000000	1,024635
3089,000000	1,025580
3088,000000	1,025952
3087,000000	1,025735
3086,000000	1,025304
3085,000000	1,025031
3084,000000	1,024939
3083,000000	1,024881
3082,000000	1,024857
3081,000000	1,025003
3080,000000	1,025469
3079,000000	1,026459
3078,000000	1,028139
3077,000000	1,030298
3076,000000	1,032315
3075,000000	1,033748
3074,000000	1,034761
3073,000000	1,035740
3072,000000	1,036686
3071,000000	1,037218
3070,000000	1,037008
3069,000000	1,035994
3068,000000	1,034389
3067,000000	1,032793
3066,000000	1,032091
3065,000000	1,032853
3064,000000	1,034818
3063,000000	1,037187
3062,000000	1,039271
3061,000000	1,040683
3060,000000	1,041174
3059,000000	1,040809
3058,000000	1,040243
3057,000000	1,040385
3056,000000	1,041640
3055,000000	1,043634
3054,000000	1,045643
3053,000000	1,047122
3052,000000	1,047914
3051,000000	1,048324
3050,000000	1,049008
3049,000000	1,050492
3048,000000	1,052659
3047,000000	1,054838
3046,000000	1,056438
3045,000000	1,057384
3044,000000	1,057968
3043,000000	1,058473
3042,000000	1,059002
3041,000000	1,059501
3040,000000	1,059864
3039,000000	1,059989
3038,000000	1,059789
3037,000000	1,059145
3036,000000	1,057972
3035,000000	1,056410
3034,000000	1,054917
3033,000000	1,054089
3032,000000	1,054368
3031,000000	1,055817
3030,000000	1,057993
3029,000000	1,060053
3028,000000	1,061267
3027,000000	1,061582
3026,000000	1,061627
3025,000000	1,062059
3024,000000	1,063025
3023,000000	1,064193
3022,000000	1,065076
3021,000000	1,065269
3020,000000	1,064685
3019,000000	1,063738
3018,000000	1,063097
3017,000000	1,063098
3016,000000	1,063565
3015,000000	1,064300
3014,000000	1,065452
3013,000000	1,067249
3012,000000	1,069628
3011,000000	1,072381
3010,000000	1,075392
3009,000000	1,078461
3008,000000	1,081099
3007,000000	1,082878
3006,000000	1,083891
3005,000000	1,084618
3004,000000	1,085410
3003,000000	1,086336
3002,000000	1,087448
3001,000000	1,088853
3000,000000	1,090476
2999,000000	1,091940
2998,000000	1,092808
2997,000000	1,092919
2996,000000	1,092562
2995,000000	1,092366
2994,000000	1,092888
2993,000000	1,094159
2992,000000	1,095670
2991,000000	1,096844
2990,000000	1,097488
2989,000000	1,097807
2988,000000	1,098138
2987,000000	1,098721
2986,000000	1,099536
2985,000000	1,100258
2984,000000	1,100529
2983,000000	1,100369
2982,000000	1,100167
2981,000000	1,100234
2980,000000	1,100515
2979,000000	1,100773
2978,000000	1,100817
2977,000000	1,100504
2976,000000	1,099787
2975,000000	1,098870
2974,000000	1,098065
2973,000000	1,097373
2972,000000	1,096448
2971,000000	1,095127
2970,000000	1,093712
2969,000000	1,092543
2968,000000	1,091543
2967,000000	1,090410
2966,000000	1,089070
2965,000000	1,087719
2964,000000	1,086570
2963,000000	1,085737
2962,000000	1,085213
2961,000000	1,084818
2960,000000	1,084358
2959,000000	1,083951
2958,000000	1,084010
2957,000000	1,084691
2956,000000	1,085578
2955,000000	1,086118
2954,000000	1,086206
2953,000000	1,086170
2952,000000	1,086345
2951,000000	1,086829
2950,000000	1,087506
2949,000000	1,088096
2948,000000	1,088318
2947,000000	1,088156
2946,000000	1,087867
2945,000000	1,087608
2944,000000	1,087235
2943,000000	1,086538
2942,000000	1,085475
2941,000000	1,084052
2940,000000	1,082210
2939,000000	1,080051
2938,000000	1,077969
2937,000000	1,076339
2936,000000	1,075179
2935,000000	1,074268
2934,000000	1,073431
2933,000000	1,072544
2932,000000	1,071450
2931,000000	1,070071
2930,000000	1,068544
2929,000000	1,067135
2928,000000	1,066078
2927,000000	1,065541
2926,000000	1,065581
2925,000000	1,066060
2924,000000	1,066778
2923,000000	1,067741
2922,000000	1,069129
2921,000000	1,070967
2920,000000	1,073034
2919,000000	1,075135
2918,000000	1,077253
2917,000000	1,079414
2916,000000	1,081666
2915,000000	1,084230
2914,000000	1,087328
2913,000000	1,090811
2912,000000	1,094273
2911,000000	1,097636
2910,000000	1,101221
2909,000000	1,105103
2908,000000	1,108788
2907,000000	1,111757
2906,000000	1,114038
2905,000000	1,116029
2904,000000	1,118042
2903,000000	1,120249
2902,000000	1,122738
2901,000000	1,125381
2900,000000	1,127840
2899,000000	1,129922
2898,000000	1,131733
2897,000000	1,133393
2896,000000	1,134880
2895,000000	1,136323
2894,000000	1,138103
2893,000000	1,140385
2892,000000	1,142797
2891,000000	1,144833
2890,000000	1,146377
2889,000000	1,147709
2888,000000	1,149163
2887,000000	1,150913
2886,000000	1,152821
2885,000000	1,154398
2884,000000	1,155207
2883,000000	1,155405
2882,000000	1,155597
2881,000000	1,156053
2880,000000	1,156495
2879,000000	1,156739
2878,000000	1,157035
2877,000000	1,157512
2876,000000	1,157784
2875,000000	1,157470
2874,000000	1,156740
2873,000000	1,155975
2872,000000	1,155214
2871,000000	1,154287
2870,000000	1,153176
2869,000000	1,151877
2868,000000	1,150220
2867,000000	1,148223
2866,000000	1,146350
2865,000000	1,145011
2864,000000	1,144037
2863,000000	1,143035
2862,000000	1,142068
2861,000000	1,141596
2860,000000	1,141881
2859,000000	1,142821
2858,000000	1,144227
2857,000000	1,145942
2856,000000	1,147789
2855,000000	1,149673
2854,000000	1,151618
2853,000000	1,153484
2852,000000	1,154873
2851,000000	1,155621
2850,000000	1,156211
2849,000000	1,157364
2848,000000	1,159366
2847,000000	1,162036
2846,000000	1,165181
2845,000000	1,168723
2844,000000	1,172497
2843,000000	1,176239
2842,000000	1,179779
2841,000000	1,183086
2840,000000	1,186216
2839,000000	1,189334
2838,000000	1,192601
2837,000000	1,195898
2836,000000	1,198820
2835,000000	1,201123
2834,000000	1,202990
2833,000000	1,204733
2832,000000	1,206486
2831,000000	1,208342
2830,000000	1,210457
2829,000000	1,212749
2828,000000	1,214765
2827,000000	1,216159
2826,000000	1,217140
2825,000000	1,218196
2824,000000	1,219579
2823,000000	1,221266
2822,000000	1,223176
2821,000000	1,225135
2820,000000	1,226854
2819,000000	1,228215
2818,000000	1,229466
2817,000000	1,230869
2816,000000	1,232334
2815,000000	1,233611
2814,000000	1,234641
2813,000000	1,235504
2812,000000	1,236206
2811,000000	1,236750
2810,000000	1,237277
2809,000000	1,237940
2808,000000	1,238811
2807,000000	1,240022
2806,000000	1,241719
2805,000000	1,243701
2804,000000	1,245414
2803,000000	1,246528
2802,000000	1,247272
2801,000000	1,247968
2800,000000	1,248590
2799,000000	1,249055
2798,000000	1,249629
2797,000000	1,250651
2796,000000	1,252058
2795,000000	1,253532
2794,000000	1,254938
2793,000000	1,256316
2792,000000	1,257624
2791,000000	1,258796
2790,000000	1,259907
2789,000000	1,261010
2788,000000	1,261989
2787,000000	1,262813
2786,000000	1,263756
2785,000000	1,265091
2784,000000	1,266723
2783,000000	1,268364
2782,000000	1,269900
2781,000000	1,271345
2780,000000	1,272622
2779,000000	1,273683
2778,000000	1,274688
2777,000000	1,275795
2776,000000	1,276927
2775,000000	1,277963
2774,000000	1,279008
2773,000000	1,280221
2772,000000	1,281517
2771,000000	1,282668
2770,000000	1,283556
2769,000000	1,284178
2768,000000	1,284590
2767,000000	1,285034
2766,000000	1,285870
2765,000000	1,287166
2764,000000	1,288549
2763,000000	1,289676
2762,000000	1,290644
2761,000000	1,291692
2760,000000	1,292745
2759,000000	1,293553
2758,000000	1,294123
2757,000000	1,294727
2756,000000	1,295577
2755,000000	1,296700
2754,000000	1,298014
2753,000000	1,299337
2752,000000	1,300448
2751,000000	1,301299
2750,000000	1,302053
2749,000000	1,302812
2748,000000	1,303498
2747,000000	1,304114
2746,000000	1,304875
2745,000000	1,305941
2744,000000	1,307219
2743,000000	1,308554
2742,000000	1,309893
2741,000000	1,311133
2740,000000	1,312111
2739,000000	1,312893
2738,000000	1,313784
2737,000000	1,314869
2736,000000	1,315820
2735,000000	1,316356
2734,000000	1,316654
2733,000000	1,317084
2732,000000	1,317796
2731,000000	1,318758
2730,000000	1,319942
2729,000000	1,321266
2728,000000	1,322547
2727,000000	1,323697
2726,000000	1,324768
2725,000000	1,325717
2724,000000	1,326405
2723,000000	1,326945
2722,000000	1,327743
2721,000000	1,329018
2720,000000	1,330582
2719,000000	1,332171
2718,000000	1,333687
2717,000000	1,334979
2716,000000	1,335817
2715,000000	1,336259
2714,000000	1,336696
2713,000000	1,337341
2712,000000	1,338024
2711,000000	1,338646
2710,000000	1,339396
2709,000000	1,340312
2708,000000	1,341086
2707,000000	1,341585
2706,000000	1,342119
2705,000000	1,342890
2704,000000	1,343627
2703,000000	1,344124
2702,000000	1,344737
2701,000000	1,345928
2700,000000	1,347605
2699,000000	1,349328
2698,000000	1,350860
2697,000000	1,352189
2696,000000	1,353277
2695,000000	1,354184
2694,000000	1,355173
2693,000000	1,356355
2692,000000	1,357435
2691,000000	1,358123
2690,000000	1,358565
2689,000000	1,359078
2688,000000	1,359724
2687,000000	1,360433
2686,000000	1,361285
2685,000000	1,362335
2684,000000	1,363404
2683,000000	1,364338
2682,000000	1,365267
2681,000000	1,366347
2680,000000	1,367480
2679,000000	1,368540
2678,000000	1,369605
2677,000000	1,370697
2676,000000	1,371571
2675,000000	1,372078
2674,000000	1,372465
2673,000000	1,373054
2672,000000	1,373830
2671,000000	1,374610
2670,000000	1,375364
2669,000000	1,376112
2668,000000	1,376792
2667,000000	1,377474
2666,000000	1,378429
2665,000000	1,379723
2664,000000	1,381000
2663,000000	1,381888
2662,000000	1,382388
2661,000000	1,382674
2660,000000	1,382849
2659,000000	1,383117
2658,000000	1,383809
2657,000000	1,384968
2656,000000	1,386201
2655,000000	1,387174
2654,000000	1,387950
2653,000000	1,388656
2652,000000	1,389249
2651,000000	1,389839
2650,000000	1,390777
2649,000000	1,392097
2648,000000	1,393299
2647,000000	1,394040
2646,000000	1,394646
2645,000000	1,395563
2644,000000	1,396719
2643,000000	1,397805
2642,000000	1,398803
2641,000000	1,399790
2640,000000	1,400603
2639,000000	1,401178
2638,000000	1,401888
2637,000000	1,403065
2636,000000	1,404411
2635,000000	1,405319
2634,000000	1,405621
2633,000000	1,405662
2632,000000	1,405857
2631,000000	1,406483
2630,000000	1,407619
2629,000000	1,408963
2628,000000	1,409969
2627,000000	1,410495
2626,000000	1,411033
2625,000000	1,411991
2624,000000	1,413100
2623,000000	1,413893
2622,000000	1,414448
2621,000000	1,415191
2620,000000	1,416250
2619,000000	1,417400
2618,000000	1,418441
2617,000000	1,419251
2616,000000	1,419723
2615,000000	1,420000
2614,000000	1,420527
2613,000000	1,421539
2612,000000	1,422732
2611,000000	1,423767
2610,000000	1,424770
2609,000000	1,425963
2608,000000	1,427107
2607,000000	1,427759
2606,000000	1,427874
2605,000000	1,427776
2604,000000	1,427741
2603,000000	1,427954
2602,000000	1,428614
2601,000000	1,429706
2600,000000	1,430829
2599,000000	1,431591
2598,000000	1,432011
2597,000000	1,432311
2596,000000	1,432585
2595,000000	1,432931
2594,000000	1,433587
2593,000000	1,434599
2592,000000	1,435622
2591,000000	1,436369
2590,000000	1,436989
2589,000000	1,437692
2588,000000	1,438351
2587,000000	1,438799
2586,000000	1,439226
2585,000000	1,439904
2584,000000	1,440820
2583,000000	1,441899
2582,000000	1,443243
2581,000000	1,444781
2580,000000	1,446033
2579,000000	1,446681
2578,000000	1,447085
2577,000000	1,447802
2576,000000	1,448831
2575,000000	1,449752
2574,000000	1,450399
2573,000000	1,450968
2572,000000	1,451645
2571,000000	1,452459
2570,000000	1,453365
2569,000000	1,454161
2568,000000	1,454577
2567,000000	1,454710
2566,000000	1,455101
2565,000000	1,456083
2564,000000	1,457337
2563,000000	1,458385
2562,000000	1,459193
2561,000000	1,459977
2560,000000	1,460758
2559,000000	1,461500
2558,000000	1,462320
2557,000000	1,463212
2556,000000	1,463844
2555,000000	1,464058
2554,000000	1,464230
2553,000000	1,464754
2552,000000	1,465470
2551,000000	1,466019
2550,000000	1,466448
2549,000000	1,466991
2548,000000	1,467556
2547,000000	1,467948
2546,000000	1,468393
2545,000000	1,469303
2544,000000	1,470607
2543,000000	1,471761
2542,000000	1,472390
2541,000000	1,472627
2540,000000	1,472865
2539,000000	1,473440
2538,000000	1,474403
2537,000000	1,475427
2536,000000	1,476070
2535,000000	1,476292
2534,000000	1,476513
2533,000000	1,477084
2532,000000	1,477975
2531,000000	1,479081
2530,000000	1,480352
2529,000000	1,481469
2528,000000	1,481901
2527,000000	1,481627
2526,000000	1,481406
2525,000000	1,481986
2524,000000	1,483370
2523,000000	1,485069
2522,000000	1,486650
2521,000000	1,487761
2520,000000	1,488157
2519,000000	1,488064
2518,000000	1,488085
2517,000000	1,488421
2516,000000	1,488650
2515,000000	1,488587
2514,000000	1,488742
2513,000000	1,489480
2512,000000	1,490320
2511,000000	1,490633
2510,000000	1,490558
2509,000000	1,490628
2508,000000	1,490942
2507,000000	1,491291
2506,000000	1,491711
2505,000000	1,492293
2504,000000	1,492772
2503,000000	1,492891
2502,000000	1,492898
2501,000000	1,493159
2500,000000	1,493607
2499,000000	1,494069
2498,000000	1,494767
2497,000000	1,495888
2496,000000	1,497024
2495,000000	1,497647
2494,000000	1,497871
2493,000000	1,498157
2492,000000	1,498550
2491,000000	1,498851
2490,000000	1,499266
2489,000000	1,500164
2488,000000	1,501327
2487,000000	1,502115
2486,000000	1,502330
2485,000000	1,502406
2484,000000	1,502769
2483,000000	1,503491
2482,000000	1,504479
2481,000000	1,505510
2480,000000	1,506165
2479,000000	1,506170
2478,000000	1,505805
2477,000000	1,505649
2476,000000	1,505981
2475,000000	1,506695
2474,000000	1,507586
2473,000000	1,508401
2472,000000	1,508881
2471,000000	1,509097
2470,000000	1,509528
2469,000000	1,510450
2468,000000	1,511517
2467,000000	1,512291
2466,000000	1,512875
2465,000000	1,513568
2464,000000	1,514239
2463,000000	1,514554
2462,000000	1,514612
2461,000000	1,514843
2460,000000	1,515403
2459,000000	1,516115
2458,000000	1,516847
2457,000000	1,517574
2456,000000	1,518205
2455,000000	1,518711
2454,000000	1,519282
2453,000000	1,520071
2452,000000	1,520977
2451,000000	1,521906
2450,000000	1,522955
2449,000000	1,524062
2448,000000	1,524866
2447,000000	1,525219
2446,000000	1,525482
2445,000000	1,525942
2444,000000	1,526359
2443,000000	1,526514
2442,000000	1,526747
2441,000000	1,527447
2440,000000	1,528401
2439,000000	1,529201
2438,000000	1,529947
2437,000000	1,530944
2436,000000	1,532017
2435,000000	1,532780
2434,000000	1,533347
2433,000000	1,534131
2432,000000	1,535081
2431,000000	1,535717
2430,000000	1,535862
2429,000000	1,535830
2428,000000	1,535934
2427,000000	1,536245
2426,000000	1,536772
2425,000000	1,537477
2424,000000	1,538201
2423,000000	1,538875
2422,000000	1,539690
2421,000000	1,540736
2420,000000	1,541706
2419,000000	1,542321
2418,000000	1,542812
2417,000000	1,543587
2416,000000	1,544621
2415,000000	1,545535
2414,000000	1,546082
2413,000000	1,546239
2412,000000	1,546069
2411,000000	1,545893
2410,000000	1,546301
2409,000000	1,547578
2408,000000	1,549273
2407,000000	1,550709
2406,000000	1,551714
2405,000000	1,552538
2404,000000	1,553337
2403,000000	1,554125
2402,000000	1,554957
2401,000000	1,555773
2400,000000	1,556300
2399,000000	1,556468
2398,000000	1,556640
2397,000000	1,557072
2396,000000	1,557499
2395,000000	1,557620
2394,000000	1,557612
2393,000000	1,557670
2392,000000	1,557355
2391,000000	1,555866
2390,000000	1,552712
2389,000000	1,547432
2388,000000	1,538872
2387,000000	1,525358
2386,000000	1,505222
2385,000000	1,477181
2384,000000	1,440132
2383,000000	1,393463
2382,000000	1,337732
2381,000000	1,274317
2380,000000	1,205118
2379,000000	1,132329
2378,000000	1,058419
2377,000000	0,985636
2376,000000	0,915349
2375,000000	0,848372
2374,000000	0,785439
2373,000000	0,727106
2372,000000	0,673285
2371,000000	0,623699
2370,000000	0,578514
2369,000000	0,538207
2368,000000	0,502961
2367,000000	0,472439
2366,000000	0,446511
2365,000000	0,425334
2364,000000	0,408846
2363,000000	0,396699
2362,000000	0,388573
2361,000000	0,384684
2360,000000	0,385539
2359,000000	0,391597
2358,000000	0,403505
2357,000000	0,422037
2356,000000	0,448169
2355,000000	0,483212
2354,000000	0,529280
2353,000000	0,588878
2352,000000	0,661133
2351,000000	0,736598
2350,000000	0,796096
2349,000000	0,819432
2348,000000	0,799002
2347,000000	0,746517
2346,000000	0,684961
2345,000000	0,633303
2344,000000	0,598288
2343,000000	0,577577
2342,000000	0,567157
2341,000000	0,564042
2340,000000	0,565686
2339,000000	0,569800
2338,000000	0,575384
2337,000000	0,582159
2336,000000	0,589259
2335,000000	0,595190
2334,000000	0,599110
2333,000000	0,601718
2332,000000	0,604984
2331,000000	0,611417
2330,000000	0,622921
2329,000000	0,639391
2328,000000	0,658512
2327,000000	0,677354
2326,000000	0,694291
2325,000000	0,709615
2324,000000	0,724956
2323,000000	0,742721
2322,000000	0,765232
2321,000000	0,793579
2320,000000	0,827166
2319,000000	0,864218
2318,000000	0,902272
2317,000000	0,938280
2316,000000	0,969602
2315,000000	0,995915
2314,000000	1,019609
2313,000000	1,043762
2312,000000	1,069939
2311,000000	1,098195
2310,000000	1,128155
2309,000000	1,159332
2308,000000	1,190942
2307,000000	1,222255
2306,000000	1,252810
2305,000000	1,281817
2304,000000	1,308024
2303,000000	1,330885
2302,000000	1,351328
2301,000000	1,370745
2300,000000	1,389538
2299,000000	1,407303
2298,000000	1,423825
2297,000000	1,439226
2296,000000	1,453622
2295,000000	1,467260
2294,000000	1,480690
2293,000000	1,494150
2292,000000	1,507189
2291,000000	1,519454
2290,000000	1,531359
2289,000000	1,543431
2288,000000	1,555464
2287,000000	1,566850
2286,000000	1,577234
2285,000000	1,586144
2284,000000	1,592593
2283,000000	1,595907
2282,000000	1,596584
2281,000000	1,595773
2280,000000	1,594208
2279,000000	1,592278
2278,000000	1,590578
2277,000000	1,589560
2276,000000	1,589005
2275,000000	1,588491
2274,000000	1,588136
2273,000000	1,588253
2272,000000	1,588704
2271,000000	1,589222
2270,000000	1,590012
2269,000000	1,591373
2268,000000	1,593051
2267,000000	1,594635
2266,000000	1,596275
2265,000000	1,598389
2264,000000	1,600954
2263,000000	1,603640
2262,000000	1,606358
2261,000000	1,609119
2260,000000	1,611687
2259,000000	1,613924
2258,000000	1,616163
2257,000000	1,618752
2256,000000	1,621531
2255,000000	1,624196
2254,000000	1,626743
2253,000000	1,629164
2252,000000	1,631200
2251,000000	1,632884
2250,000000	1,634773
2249,000000	1,637104
2248,000000	1,639287
2247,000000	1,640811
2246,000000	1,642099
2245,000000	1,643836
2244,000000	1,645980
2243,000000	1,648068
2242,000000	1,649941
2241,000000	1,651516
2240,000000	1,652413
2239,000000	1,652563
2238,000000	1,652737
2237,000000	1,653712
2236,000000	1,655320
2235,000000	1,656922
2234,000000	1,658343
2233,000000	1,659682
2232,000000	1,660744
2231,000000	1,661428
2230,000000	1,662188
2229,000000	1,663376
2228,000000	1,664550
2227,000000	1,665185
2226,000000	1,665609
2225,000000	1,666463
2224,000000	1,667663
2223,000000	1,668668
2222,000000	1,669411
2221,000000	1,670152
2220,000000	1,670760
2219,000000	1,670905
2218,000000	1,670726
2217,000000	1,670638
2216,000000	1,670745
2215,000000	1,671022
2214,000000	1,671709
2213,000000	1,672897
2212,000000	1,674096
2211,000000	1,674850
2210,000000	1,675397
2209,000000	1,676150
2208,000000	1,676930
2207,000000	1,677350
2206,000000	1,677512
2205,000000	1,677727
2204,000000	1,677940
2203,000000	1,678072
2202,000000	1,678460
2201,000000	1,679324
2200,000000	1,680226
2199,000000	1,680697
2198,000000	1,680953
2197,000000	1,681397
2196,000000	1,681922
2195,000000	1,682341
2194,000000	1,682965
2193,000000	1,684042
2192,000000	1,685138
2191,000000	1,685760
2190,000000	1,686123
2189,000000	1,686646
2188,000000	1,687222
2187,000000	1,687676
2186,000000	1,688358
2185,000000	1,689516
2184,000000	1,690600
2183,000000	1,691005
2182,000000	1,690972
2181,000000	1,691081
2180,000000	1,691357
2179,000000	1,691667
2178,000000	1,692335
2177,000000	1,693499
2176,000000	1,694390
2175,000000	1,694232
2174,000000	1,693411
2173,000000	1,692897
2172,000000	1,692945
2171,000000	1,693230
2170,000000	1,693803
2169,000000	1,694927
2168,000000	1,696291
2167,000000	1,697281
2166,000000	1,697789
2165,000000	1,698014
2164,000000	1,697850
2163,000000	1,697268
2162,000000	1,696886
2161,000000	1,697319
2160,000000	1,698272
2159,000000	1,699063
2158,000000	1,699641
2157,000000	1,700350
2156,000000	1,701095
2155,000000	1,701585
2154,000000	1,702002
2153,000000	1,702624
2152,000000	1,703155
2151,000000	1,703232
2150,000000	1,703213
2149,000000	1,703648
2148,000000	1,704335
2147,000000	1,704728
2146,000000	1,704892
2145,000000	1,705233
2144,000000	1,705653
2143,000000	1,705794
2142,000000	1,705803
2141,000000	1,706036
2140,000000	1,706342
2139,000000	1,706427
2138,000000	1,706610
2137,000000	1,707395
2136,000000	1,708605
2135,000000	1,709683
2134,000000	1,710576
2133,000000	1,711605
2132,000000	1,712761
2131,000000	1,713830
2130,000000	1,714877
2129,000000	1,715957
2128,000000	1,716696
2127,000000	1,716825
2126,000000	1,716726
2125,000000	1,716858
2124,000000	1,717099
2123,000000	1,717282
2122,000000	1,717801
2121,000000	1,718930
2120,000000	1,720052
2119,000000	1,720370
2118,000000	1,719993
2117,000000	1,719610
2116,000000	1,719590
2115,000000	1,720058
2114,000000	1,721312
2113,000000	1,723336
2112,000000	1,725357
2111,000000	1,726661
2110,000000	1,727458
2109,000000	1,728311
2108,000000	1,729249
2107,000000	1,730116
2106,000000	1,731150
2105,000000	1,732482
2104,000000	1,733611
2103,000000	1,734174
2102,000000	1,734683
2101,000000	1,735759
2100,000000	1,737177
2099,000000	1,738391
2098,000000	1,739366
2097,000000	1,740201
2096,000000	1,740559
2095,000000	1,740250
2094,000000	1,739708
2093,000000	1,739224
2092,000000	1,738466
2091,000000	1,737521
2090,000000	1,737509
2089,000000	1,739225
2088,000000	1,741952
2087,000000	1,744485
2086,000000	1,746586
2085,000000	1,748511
2084,000000	1,750004
2083,000000	1,750812
2082,000000	1,751425
2081,000000	1,752244
2080,000000	1,752801
2079,000000	1,752785
2078,000000	1,752965
2077,000000	1,754044
2076,000000	1,755444
2075,000000	1,756392
2074,000000	1,757280
2073,000000	1,758773
2072,000000	1,760429
2071,000000	1,761441
2070,000000	1,761767
2069,000000	1,761235
2068,000000	1,758717
2067,000000	1,754045
2066,000000	1,749896
2065,000000	1,749627
2064,000000	1,753495
2063,000000	1,758678
2062,000000	1,762791
2061,000000	1,765705
2060,000000	1,768122
2059,000000	1,770226
2058,000000	1,772015
2057,000000	1,773602
2056,000000	1,774824
2055,000000	1,775506
2054,000000	1,776072
2053,000000	1,777055
2052,000000	1,778204
2051,000000	1,778986
2050,000000	1,779566
2049,000000	1,780374
2048,000000	1,781105
2047,000000	1,781130
2046,000000	1,780386
2045,000000	1,778929
2044,000000	1,776417
2043,000000	1,773308
2042,000000	1,771759
2041,000000	1,773698
2040,000000	1,778352
2039,000000	1,783094
2038,000000	1,786396
2037,000000	1,788552
2036,000000	1,790043
2035,000000	1,790885
2034,000000	1,791464
2033,000000	1,792452
2032,000000	1,793799
2031,000000	1,794938
2030,000000	1,795830
2029,000000	1,796739
2028,000000	1,797323
2027,000000	1,797144
2026,000000	1,796790
2025,000000	1,797245
2024,000000	1,798459
2023,000000	1,799463
2022,000000	1,799214
2021,000000	1,796275
2020,000000	1,789068
2019,000000	1,778595
2018,000000	1,770133
2017,000000	1,769555
2016,000000	1,777536
2015,000000	1,789150
2014,000000	1,799140
2013,000000	1,805610
2012,000000	1,808919
2011,000000	1,809731
2010,000000	1,809187
2009,000000	1,809010
2008,000000	1,810039
2007,000000	1,811665
2006,000000	1,813245
2005,000000	1,814862
2004,000000	1,816339
2003,000000	1,816939
2002,000000	1,816555
2001,000000	1,815962
2000,000000	1,815608
1999,000000	1,815468
1998,000000	1,815870
1997,000000	1,816136
1996,000000	1,812224
1995,000000	1,799142
1994,000000	1,778029
1993,000000	1,758753
1992,000000	1,752266
1991,000000	1,760542
1990,000000	1,776127
1989,000000	1,790770
1988,000000	1,801926
1987,000000	1,811100
1986,000000	1,819070
1985,000000	1,824876
1984,000000	1,828030
1983,000000	1,829477
1982,000000	1,830433
1981,000000	1,831410
1980,000000	1,832410
1979,000000	1,833277
1978,000000	1,833856
1977,000000	1,834227
1976,000000	1,834785
1975,000000	1,835819
1974,000000	1,837180
1973,000000	1,838378
1972,000000	1,838106
1971,000000	1,833458
1970,000000	1,821526
1969,000000	1,803918
1968,000000	1,788901
1967,000000	1,786024
1966,000000	1,797360
1965,000000	1,815369
1964,000000	1,830229
1963,000000	1,837895
1962,000000	1,840601
1961,000000	1,841926
1960,000000	1,843462
1959,000000	1,844939
1958,000000	1,845385
1957,000000	1,844326
1956,000000	1,842908
1955,000000	1,843374
1954,000000	1,846516
1953,000000	1,850645
1952,000000	1,853728
1951,000000	1,855126
1950,000000	1,854567
1949,000000	1,851243
1948,000000	1,844864
1947,000000	1,835036
1946,000000	1,818701
1945,000000	1,792840
1944,000000	1,763348
1943,000000	1,746846
1942,000000	1,757002
1941,000000	1,789676
1940,000000	1,826304
1939,000000	1,851802
1938,000000	1,864525
1937,000000	1,869876
1936,000000	1,871454
1935,000000	1,870682
1934,000000	1,869731
1933,000000	1,870531
1932,000000	1,872804
1931,000000	1,875286
1930,000000	1,877723
1929,000000	1,880103
1928,000000	1,880636
1927,000000	1,875023
1926,000000	1,858250
1925,000000	1,830519
1924,000000	1,802552
1923,000000	1,789182
1922,000000	1,791806
1921,000000	1,792342
1920,000000	1,774154
1919,000000	1,746921
1918,000000	1,739801
1917,000000	1,767800
1916,000000	1,815255
1915,000000	1,855159
1914,000000	1,874383
1913,000000	1,875129
1912,000000	1,863104
1911,000000	1,845085
1910,000000	1,831892
1909,000000	1,832507
1908,000000	1,845313
1907,000000	1,861371
1906,000000	1,874672
1905,000000	1,884547
1904,000000	1,891000
1903,000000	1,893955
1902,000000	1,895662
1901,000000	1,898410
1900,000000	1,900166
1899,000000	1,896181
1898,000000	1,884525
1897,000000	1,868561
1896,000000	1,855523
1895,000000	1,852434
1894,000000	1,858337
1893,000000	1,859506
1892,000000	1,840883
1891,000000	1,806904
1890,000000	1,783546
1889,000000	1,791905
1888,000000	1,825397
1887,000000	1,859873
1886,000000	1,880690
1885,000000	1,891047
1884,000000	1,898251
1883,000000	1,904009
1882,000000	1,907854
1881,000000	1,910751
1880,000000	1,912852
1879,000000	1,913454
1878,000000	1,913714
1877,000000	1,915327
1876,000000	1,917254
1875,000000	1,916583
1874,000000	1,909334
1873,000000	1,885515
1872,000000	1,831371
1871,000000	1,747883
1870,000000	1,664989
1869,000000	1,624435
1868,000000	1,645149
1867,000000	1,710309
1866,000000	1,786869
1865,000000	1,849941
1864,000000	1,889360
1863,000000	1,906192
1862,000000	1,909146
1861,000000	1,908583
1860,000000	1,909262
1859,000000	1,910723
1858,000000	1,913434
1857,000000	1,918969
1856,000000	1,925144
1855,000000	1,927773
1854,000000	1,927515
1853,000000	1,927692
1852,000000	1,925407
1851,000000	1,913607
1850,000000	1,891255
1849,000000	1,861430
1848,000000	1,817825
1847,000000	1,747709
1846,000000	1,658114
1845,000000	1,589188
1844,000000	1,586190
1843,000000	1,656407
1842,000000	1,760190
1841,000000	1,845405
1840,000000	1,886624
1839,000000	1,893034
1838,000000	1,887821
1837,000000	1,886784
1836,000000	1,892973
1835,000000	1,899452
1834,000000	1,890157
1833,000000	1,846046
1832,000000	1,765443
1831,000000	1,680880
1830,000000	1,639720
1829,000000	1,657309
1828,000000	1,698565
1827,000000	1,719761
1826,000000	1,718852
1825,000000	1,730294
1824,000000	1,775401
1823,000000	1,837313
1822,000000	1,886895
1821,000000	1,912959
1820,000000	1,920908
1819,000000	1,918144
1818,000000	1,912384
1817,000000	1,912685
1816,000000	1,919700
1815,000000	1,920035
1814,000000	1,899811
1813,000000	1,861979
1812,000000	1,824441
1811,000000	1,805003
1810,000000	1,810945
1809,000000	1,837475
1808,000000	1,870667
1807,000000	1,894852
1806,000000	1,900879
1805,000000	1,886047
1804,000000	1,849026
1803,000000	1,793829
1802,000000	1,738635
1801,000000	1,708914
1800,000000	1,715888
1799,000000	1,747511
1798,000000	1,781903
1797,000000	1,798622
1796,000000	1,778142
1795,000000	1,709168
1794,000000	1,610759
1793,000000	1,534748
1792,000000	1,530855
1791,000000	1,605919
1790,000000	1,720485
1789,000000	1,820340
1788,000000	1,869298
1787,000000	1,865707
1786,000000	1,838551
1785,000000	1,820845
1784,000000	1,819496
1783,000000	1,816156
1782,000000	1,800201
1781,000000	1,787701
1780,000000	1,798075
1779,000000	1,824453
1778,000000	1,840170
1777,000000	1,823280
1776,000000	1,762465
1775,000000	1,655073
1774,000000	1,523101
1773,000000	1,421610
1772,000000	1,401904
1771,000000	1,460664
1770,000000	1,546456
1769,000000	1,620255
1768,000000	1,688035
1767,000000	1,765209
1766,000000	1,831564
1765,000000	1,844593
1764,000000	1,792388
1763,000000	1,716595
1762,000000	1,676668
1761,000000	1,694064
1760,000000	1,736128
1759,000000	1,755261
1758,000000	1,742963
1757,000000	1,735665
1756,000000	1,760133
1755,000000	1,788144
1754,000000	1,763056
1753,000000	1,668436
1752,000000	1,550175
1751,000000	1,467892
1750,000000	1,445596
1749,000000	1,473074
1748,000000	1,530978
1747,000000	1,597738
1746,000000	1,648921
1745,000000	1,671105
1744,000000	1,670147
1743,000000	1,654203
1742,000000	1,621429
1741,000000	1,580826
1740,000000	1,565732
1739,000000	1,594559
1738,000000	1,621291
1737,000000	1,567468
1736,000000	1,418206
1735,000000	1,261886
1734,000000	1,209742
1733,000000	1,288287
1732,000000	1,431232
1731,000000	1,562968
1730,000000	1,661916
1729,000000	1,743787
1728,000000	1,814291
1727,000000	1,858741
1726,000000	1,867549
1725,000000	1,852945
1724,000000	1,837222
1723,000000	1,824170
1722,000000	1,786346
1721,000000	1,684051
1720,000000	1,510606
1719,000000	1,319053
1718,000000	1,191148
1717,000000	1,173552
1716,000000	1,250372
1715,000000	1,375575
1714,000000	1,513527
1713,000000	1,640999
1712,000000	1,733506
1711,000000	1,774031
1710,000000	1,766311
1709,000000	1,721627
1708,000000	1,644341
1707,000000	1,550938
1706,000000	1,484960
1705,000000	1,471585
1704,000000	1,463634
1703,000000	1,379751
1702,000000	1,213992
1701,000000	1,066077
1700,000000	1,030165
1699,000000	1,085938
1698,000000	1,141990
1697,000000	1,163927
1696,000000	1,210544
1695,000000	1,339427
1694,000000	1,521291
1693,000000	1,669202
1692,000000	1,726612
1691,000000	1,709516
1690,000000	1,668806
1689,000000	1,628091
1688,000000	1,557423
1687,000000	1,413191
1686,000000	1,212167
1685,000000	1,051760
1684,000000	1,032280
1683,000000	1,160373
1682,000000	1,348398
1681,000000	1,507371
1680,000000	1,606871
1679,000000	1,644813
1678,000000	1,610898
1677,000000	1,515190
1676,000000	1,420658
1675,000000	1,395680
1674,000000	1,435648
1673,000000	1,465303
1672,000000	1,428409
1671,000000	1,351219
1670,000000	1,310782
1669,000000	1,359321
1668,000000	1,482776
1667,000000	1,613829
1666,000000	1,678700
1665,000000	1,649891
1664,000000	1,571460
1663,000000	1,524077
1662,000000	1,553152
1661,000000	1,635179
1660,000000	1,712817
1659,000000	1,744492
1658,000000	1,708642
1657,000000	1,580726
1656,000000	1,349424
1655,000000	1,067520
1654,000000	0,858926
1653,000000	0,835322
1652,000000	0,992626
1651,000000	1,202314
1650,000000	1,315245
1649,000000	1,283721
1648,000000	1,184943
1647,000000	1,139196
1646,000000	1,208957
1645,000000	1,366198
1644,000000	1,533243
1643,000000	1,648348
1642,000000	1,695794
1641,000000	1,688777
1640,000000	1,632973
1639,000000	1,517545
1638,000000	1,349084
1637,000000	1,185119
1636,000000	1,113209
1635,000000	1,182503
1634,000000	1,357695
1633,000000	1,546284
1632,000000	1,666649
1631,000000	1,693272
1630,000000	1,654029
1629,000000	1,599031
1628,000000	1,564404
1627,000000	1,549147
1626,000000	1,523731
1625,000000	1,472832
1624,000000	1,427115
1623,000000	1,437220
1622,000000	1,510425
1621,000000	1,584920
1620,000000	1,581435
1619,000000	1,481561
1618,000000	1,350163
1617,000000	1,283109
1616,000000	1,329737
1615,000000	1,458999
1614,000000	1,592745
1613,000000	1,669791
1612,000000	1,682542
1611,000000	1,662457
1610,000000	1,641142
1609,000000	1,631945
1608,000000	1,636618
1607,000000	1,652751
1606,000000	1,671531
1605,000000	1,681410
1604,000000	1,680550
1603,000000	1,679894
1602,000000	1,689198
1601,000000	1,705598
1600,000000	1,719702
1599,000000	1,726035
1598,000000	1,723286
1597,000000	1,711493
1596,000000	1,695746
1595,000000	1,686956
1594,000000	1,691457
1593,000000	1,703036
1592,000000	1,711564
1591,000000	1,715972
1590,000000	1,721941
1589,000000	1,730542
1588,000000	1,737274
1587,000000	1,740570
1586,000000	1,742922
1585,000000	1,744093
1584,000000	1,741478
1583,000000	1,737212
1582,000000	1,734996
1581,000000	1,723199
1580,000000	1,671163
1579,000000	1,555653
1578,000000	1,399431
1577,000000	1,275964
1576,000000	1,261035
1575,000000	1,364702
1574,000000	1,508525
1573,000000	1,582872
1572,000000	1,540260
1571,000000	1,434857
1570,000000	1,366545
1569,000000	1,388095
1568,000000	1,468294
1567,000000	1,540821
1566,000000	1,572408
1565,000000	1,574485
1564,000000	1,554289
1563,000000	1,475693
1562,000000	1,291989
1561,000000	1,023393
1560,000000	0,783085
1559,000000	0,697160
1558,000000	0,792059
1557,000000	0,978106
1556,000000	1,148029
1555,000000	1,268700
1554,000000	1,364953
1553,000000	1,447503
1552,000000	1,497103
1551,000000	1,512760
1550,000000	1,526320
1549,000000	1,554525
1548,000000	1,565100
1547,000000	1,515609
1546,000000	1,406822
1545,000000	1,276189
1544,000000	1,149269
1543,000000	1,022487
1542,000000	0,896334
1541,000000	0,808107
1540,000000	0,818442
1539,000000	0,956989
1538,000000	1,175486
1537,000000	1,361847
1536,000000	1,424146
1535,000000	1,374180
1534,000000	1,314455
1533,000000	1,334595
1532,000000	1,428343
1531,000000	1,519057
1530,000000	1,543812
1529,000000	1,498879
1528,000000	1,420551
1527,000000	1,349080
1526,000000	1,302483
1525,000000	1,263097
1524,000000	1,195954
1523,000000	1,099349
1522,000000	1,027803
1521,000000	1,036490
1520,000000	1,110258
1519,000000	1,179668
1518,000000	1,210189
1517,000000	1,238301
1516,000000	1,306879
1515,000000	1,399693
1514,000000	1,464328
1513,000000	1,475987
1512,000000	1,444263
1511,000000	1,370798
1510,000000	1,238445
1509,000000	1,055010
1508,000000	0,886302
1507,000000	0,825457
1506,000000	0,923263
1505,000000	1,144415
1504,000000	1,387482
1503,000000	1,552089
1502,000000	1,598051
1501,000000	1,549385
1500,000000	1,453655
1499,000000	1,348801
1498,000000	1,266882
1497,000000	1,242560
1496,000000	1,293933
1495,000000	1,392334
1494,000000	1,469675
1493,000000	1,468408
1492,000000	1,389262
1491,000000	1,289665
1490,000000	1,236874
1489,000000	1,260158
1488,000000	1,344248
1487,000000	1,457150
1486,000000	1,573045
1485,000000	1,669320
1484,000000	1,723795
1483,000000	1,733164
1482,000000	1,724144
1481,000000	1,724925
1480,000000	1,727425
1479,000000	1,698102
1478,000000	1,624587
1477,000000	1,528145
1476,000000	1,428768
1475,000000	1,327240
1474,000000	1,237329
1473,000000	1,206531
1472,000000	1,276982
1471,000000	1,431272
1470,000000	1,596421
1469,000000	1,697728
1468,000000	1,702398
1467,000000	1,629939
1466,000000	1,540393
1465,000000	1,502221
1464,000000	1,541810
1463,000000	1,616962
1462,000000	1,647175
1461,000000	1,575786
1460,000000	1,405066
1459,000000	1,194029
1458,000000	1,033710
1457,000000	1,003409
1456,000000	1,116021
1455,000000	1,303914
1454,000000	1,474081
1453,000000	1,578721
1452,000000	1,624280
1451,000000	1,628845
1450,000000	1,602920
1449,000000	1,568357
1448,000000	1,562186
1447,000000	1,603602
1446,000000	1,672434
1445,000000	1,732375
1444,000000	1,766058
1443,000000	1,780234
1442,000000	1,783456
1441,000000	1,766046
1440,000000	1,702734
1439,000000	1,582230
1438,000000	1,442160
1437,000000	1,360987
1436,000000	1,392583
1435,000000	1,509034
1434,000000	1,623615
1433,000000	1,672925
1432,000000	1,661379
1431,000000	1,633140
1430,000000	1,625634
1429,000000	1,650499
1428,000000	1,692325
1427,000000	1,716664
1426,000000	1,699927
1425,000000	1,659236
1424,000000	1,631501
1423,000000	1,615417
1422,000000	1,564994
1421,000000	1,458105
1420,000000	1,346493
1419,000000	1,310465
1418,000000	1,375079
1417,000000	1,495527
1416,000000	1,610777
1415,000000	1,688609
1414,000000	1,725085
1413,000000	1,730208
1412,000000	1,722241
1411,000000	1,718334
1410,000000	1,720460
1409,000000	1,715257
1408,000000	1,689803
1407,000000	1,644979
1406,000000	1,598633
1405,000000	1,577166
1404,000000	1,592792
1403,000000	1,622116
1402,000000	1,620379
1401,000000	1,569833
1400,000000	1,503314
1399,000000	1,463450
1398,000000	1,452248
1397,000000	1,441441
1396,000000	1,424472
1395,000000	1,431355
1394,000000	1,486504
1393,000000	1,573538
1392,000000	1,648181
1391,000000	1,673783
1390,000000	1,642610
1389,000000	1,578766
1388,000000	1,527614
1387,000000	1,526803
1386,000000	1,575514
1385,000000	1,638076
1384,000000	1,681065
1383,000000	1,698323
1382,000000	1,700442
1381,000000	1,695011
1380,000000	1,685038
1379,000000	1,673067
1378,000000	1,655112
1377,000000	1,620247
1376,000000	1,569308
1375,000000	1,527838
1374,000000	1,526338
1373,000000	1,567299
1372,000000	1,620455
1371,000000	1,653394
1370,000000	1,660181
1369,000000	1,658462
1368,000000	1,663651
1367,000000	1,668960
1366,000000	1,652337
1365,000000	1,603179
1364,000000	1,540712
1363,000000	1,502574
1362,000000	1,512344
1361,000000	1,560804
1360,000000	1,618594
1359,000000	1,661528
1358,000000	1,682655
1357,000000	1,687281
1356,000000	1,684648
1355,000000	1,683254
1354,000000	1,686935
1353,000000	1,692720
1352,000000	1,695009
1351,000000	1,692556
1350,000000	1,689614
1349,000000	1,690247
1348,000000	1,693986
1347,000000	1,697890
1346,000000	1,700287
1345,000000	1,699711
1344,000000	1,690693
1343,000000	1,664717
1342,000000	1,619733
1341,000000	1,568619
1340,000000	1,534379
1339,000000	1,533162
1338,000000	1,561924
1337,000000	1,603926
1336,000000	1,643361
1335,000000	1,672907
1334,000000	1,691209
1333,000000	1,699289
1332,000000	1,700566
1331,000000	1,699880
1330,000000	1,699971
1329,000000	1,700366
1328,000000	1,700253
1327,000000	1,700079
1326,000000	1,699921
1325,000000	1,698653
1324,000000	1,695102
1323,000000	1,688121
1322,000000	1,675912
1321,000000	1,658374
1320,000000	1,640759
1319,000000	1,631404
1318,000000	1,633682
1317,000000	1,642139
1316,000000	1,648139
1315,000000	1,648389
1314,000000	1,646720
1313,000000	1,648718
1312,000000	1,656053
1311,000000	1,665287
1310,000000	1,671385
1309,000000	1,672507
1308,000000	1,671232
1307,000000	1,671010
1306,000000	1,672248
1305,000000	1,673054
1304,000000	1,672714
1303,000000	1,672289
1302,000000	1,672255
1301,000000	1,671640
1300,000000	1,669822
1299,000000	1,667421
1298,000000	1,665199
1297,000000	1,663508
1296,000000	1,662794
1295,000000	1,663175
1294,000000	1,663477
1293,000000	1,662071
1292,000000	1,658649
1291,000000	1,654078
1290,000000	1,649035
1289,000000	1,644337
1288,000000	1,641871
1287,000000	1,643045
1286,000000	1,646394
1285,000000	1,648687
1284,000000	1,648369
1283,000000	1,646363
1282,000000	1,643800
1281,000000	1,640930
1280,000000	1,638231
1279,000000	1,636441
1278,000000	1,635137
1277,000000	1,632922
1276,000000	1,629131
1275,000000	1,623877
1274,000000	1,616825
1273,000000	1,607832
1272,000000	1,598732
1271,000000	1,592261
1270,000000	1,588849
1269,000000	1,586223
1268,000000	1,582432
1267,000000	1,577601
1266,000000	1,572377
1265,000000	1,566580
1264,000000	1,559958
1263,000000	1,552981
1262,000000	1,546515
1261,000000	1,541823
1260,000000	1,540723
1259,000000	1,544055
1258,000000	1,549985
1257,000000	1,555406
1256,000000	1,559058
1255,000000	1,561822
1254,000000	1,564179
1253,000000	1,565335
1252,000000	1,565063
1251,000000	1,564366
1250,000000	1,563796
1249,000000	1,562765
1248,000000	1,560933
1247,000000	1,558796
1246,000000	1,556582
1245,000000	1,554044
1244,000000	1,551645
1243,000000	1,550381
1242,000000	1,550075
1241,000000	1,549353
1240,000000	1,547656
1239,000000	1,545821
1238,000000	1,544317
1237,000000	1,542509
1236,000000	1,540105
1235,000000	1,537825
1234,000000	1,536035
1233,000000	1,534063
1232,000000	1,531450
1231,000000	1,528639
1230,000000	1,525892
1229,000000	1,522732
1228,000000	1,518992
1227,000000	1,515338
1226,000000	1,512261
1225,000000	1,509526
1224,000000	1,506916
1223,000000	1,504503
1222,000000	1,501925
1221,000000	1,498477
1220,000000	1,494236
1219,000000	1,490071
1218,000000	1,486339
1217,000000	1,482523
1216,000000	1,478305
1215,000000	1,473952
1214,000000	1,469576
1213,000000	1,465140
1212,000000	1,461268
1211,000000	1,458778
1210,000000	1,457260
1209,000000	1,455312
1208,000000	1,452351
1207,000000	1,449077
1206,000000	1,446026
1205,000000	1,442981
1204,000000	1,439972
1203,000000	1,437477
1202,000000	1,435287
1201,000000	1,432477
1200,000000	1,428911
1199,000000	1,425618
1198,000000	1,423232
1197,000000	1,421166
1196,000000	1,418727
1195,000000	1,415987
1194,000000	1,413119
1193,000000	1,409927
1192,000000	1,406426
1191,000000	1,402989
1190,000000	1,399584
1189,000000	1,395788
1188,000000	1,391801
1187,000000	1,388406
1186,000000	1,385630
1185,000000	1,382444
1184,000000	1,378090
1183,000000	1,372856
1182,000000	1,367328
1181,000000	1,361901
1180,000000	1,357225
1179,000000	1,353976
1178,000000	1,351770
1177,000000	1,349307
1176,000000	1,346008
1175,000000	1,342592
1174,000000	1,339718
1173,000000	1,337013
1172,000000	1,333873
1171,000000	1,330272
1170,000000	1,326309
1169,000000	1,321778
1168,000000	1,316717
1167,000000	1,311659
1166,000000	1,306921
1165,000000	1,302277
1164,000000	1,297623
1163,000000	1,293285
1162,000000	1,289378
1161,000000	1,285557
1160,000000	1,281641
1159,000000	1,277881
1158,000000	1,274371
1157,000000	1,270882
1156,000000	1,267449
1155,000000	1,264435
1154,000000	1,261881
1153,000000	1,259433
1152,000000	1,257023
1151,000000	1,254923
1150,000000	1,253035
1149,000000	1,250927
1148,000000	1,248662
1147,000000	1,246801
1146,000000	1,245454
1145,000000	1,244114
1144,000000	1,242586
1143,000000	1,241271
1142,000000	1,240345
1141,000000	1,239429
1140,000000	1,238307
1139,000000	1,237247
1138,000000	1,236388
1137,000000	1,235489
1136,000000	1,234476
1135,000000	1,233566
1134,000000	1,232727
1133,000000	1,231665
1132,000000	1,230469
1131,000000	1,229577
1130,000000	1,229023
1129,000000	1,228387
1128,000000	1,227567
1127,000000	1,226896
1126,000000	1,226483
1125,000000	1,226156
1124,000000	1,226124
1123,000000	1,226900
1122,000000	1,228440
1121,000000	1,230174
1120,000000	1,231993
1119,000000	1,234424
1118,000000	1,237715
1117,000000	1,241479
1116,000000	1,245444
1115,000000	1,249768
1114,000000	1,254436
1113,000000	1,259129
1112,000000	1,263859
1111,000000	1,269060
1110,000000	1,274847
1109,000000	1,280851
1108,000000	1,286943
1107,000000	1,293351
1106,000000	1,299938
1105,000000	1,306068
1104,000000	1,311436
1103,000000	1,316327
1102,000000	1,320885
1101,000000	1,324791
1100,000000	1,327859
1099,000000	1,330336
1098,000000	1,332326
1097,000000	1,333603
1096,000000	1,334162
1095,000000	1,334372
1094,000000	1,334434
1093,000000	1,334203
1092,000000	1,333687
1091,000000	1,333107
1090,000000	1,332326
1089,000000	1,330877
1088,000000	1,328643
1087,000000	1,325976
1086,000000	1,323051
1085,000000	1,319698
1084,000000	1,316010
1083,000000	1,312393
1082,000000	1,308947
1081,000000	1,305382
1080,000000	1,301671
1079,000000	1,298113
1078,000000	1,294670
1077,000000	1,290935
1076,000000	1,286906
1075,000000	1,283118
1074,000000	1,279837
1073,000000	1,276760
1072,000000	1,273678
1071,000000	1,270781
1070,000000	1,268092
1069,000000	1,265244
1068,000000	1,262035
1067,000000	1,258674
1066,000000	1,255261
1065,000000	1,251612
1064,000000	1,247764
1063,000000	1,244083
1062,000000	1,240644
1061,000000	1,237019
1060,000000	1,232858
1059,000000	1,228152
1058,000000	1,222743
1057,000000	1,216028
1056,000000	1,207507
1055,000000	1,197208
1054,000000	1,185648
1053,000000	1,173836
1052,000000	1,163406
1051,000000	1,156061
1050,000000	1,152681
1049,000000	1,153084
1048,000000	1,156517
1047,000000	1,161928
1046,000000	1,167770
1045,000000	1,172475
1044,000000	1,175325
1043,000000	1,176505
1042,000000	1,176259
1041,000000	1,174615
1040,000000	1,171897
1039,000000	1,168788
1038,000000	1,165654
1037,000000	1,162234
1036,000000	1,158268
1035,000000	1,153865
1034,000000	1,149188
1033,000000	1,144271
1032,000000	1,139262
1031,000000	1,134406
1030,000000	1,129639
1029,000000	1,124646
1028,000000	1,119370
1027,000000	1,113992
1026,000000	1,108462
1025,000000	1,102573
1024,000000	1,096504
1023,000000	1,090683
1022,000000	1,085051
1021,000000	1,079106
1020,000000	1,072760
1019,000000	1,066552
1018,000000	1,060850
1017,000000	1,055458
1016,000000	1,050150
1015,000000	1,045013
1014,000000	1,040061
1013,000000	1,035054
1012,000000	1,029944
1011,000000	1,024990
1010,000000	1,020288
1009,000000	1,015694
1008,000000	1,011315
1007,000000	1,007518
1006,000000	1,004239
1005,000000	1,000842
1004,000000	0,996929
1003,000000	0,992773
1002,000000	0,988763
1001,000000	0,984893
1000,000000	0,981046
999,000000	0,977333
998,000000	0,973845
997,000000	0,970459
996,000000	0,967125
995,000000	0,963982
994,000000	0,961023
993,000000	0,958017
992,000000	0,954924
991,000000	0,952031
990,000000	0,949482
989,000000	0,947063
988,000000	0,944554
987,000000	0,941952
986,000000	0,939249
985,000000	0,936385
984,000000	0,933542
983,000000	0,931063
982,000000	0,928937
981,000000	0,926793
980,000000	0,924530
979,000000	0,922477
978,000000	0,920784
977,000000	0,919069
976,000000	0,916952
975,000000	0,914533
974,000000	0,912132
973,000000	0,909883
972,000000	0,907763
971,000000	0,905739
970,000000	0,903688
969,000000	0,901461
968,000000	0,899136
967,000000	0,896946
966,000000	0,894890
965,000000	0,892750
964,000000	0,890521
963,000000	0,888441
962,000000	0,886507
961,000000	0,884408
960,000000	0,882068
959,000000	0,879841
958,000000	0,877983
957,000000	0,876305
956,000000	0,874544
955,000000	0,872680
954,000000	0,870728
953,000000	0,868559
952,000000	0,866194
951,000000	0,863972
950,000000	0,862188
949,000000	0,860764
948,000000	0,859409
947,000000	0,857890
946,000000	0,856060
945,000000	0,853909
944,000000	0,851725
943,000000	0,849934
942,000000	0,848620
941,000000	0,847442
940,000000	0,846063
939,000000	0,844430
938,000000	0,842574
937,000000	0,840476
936,000000	0,838256
935,000000	0,836208
934,000000	0,834482
933,000000	0,832933
932,000000	0,831353
931,000000	0,829649
930,000000	0,827787
929,000000	0,825809
928,000000	0,823924
927,000000	0,822317
926,000000	0,820871
925,000000	0,819321
924,000000	0,817657
923,000000	0,816040
922,000000	0,814390
921,000000	0,812442
920,000000	0,810239
919,000000	0,808127
918,000000	0,806193
917,000000	0,804120
916,000000	0,801676
915,000000	0,799006
914,000000	0,796311
913,000000	0,793605
912,000000	0,790928
911,000000	0,788441
910,000000	0,786168
909,000000	0,783940
908,000000	0,781729
907,000000	0,779745
906,000000	0,778071
905,000000	0,776502
904,000000	0,774852
903,000000	0,773165
902,000000	0,771500
901,000000	0,769785
900,000000	0,768006
899,000000	0,766279
898,000000	0,764653
897,000000	0,763061
896,000000	0,761506
895,000000	0,760038
894,000000	0,758521
893,000000	0,756734
892,000000	0,754752
891,000000	0,752895
890,000000	0,751233
889,000000	0,749480
888,000000	0,747438
887,000000	0,745175
886,000000	0,742656
885,000000	0,739610
884,000000	0,735957
883,000000	0,732030
882,000000	0,728198
881,000000	0,724570
880,000000	0,721265
879,000000	0,718619
878,000000	0,716852
877,000000	0,715773
876,000000	0,715063
875,000000	0,714689
874,000000	0,714854
873,000000	0,715694
872,000000	0,717198
871,000000	0,719209
870,000000	0,721396
869,000000	0,723389
868,000000	0,725093
867,000000	0,726697
866,000000	0,728235
865,000000	0,729427
864,000000	0,730078
863,000000	0,730444
862,000000	0,730945
861,000000	0,731692
860,000000	0,732465
859,000000	0,732980
858,000000	0,733031
857,000000	0,732545
856,000000	0,731742
855,000000	0,731113
854,000000	0,731007
853,000000	0,731301
852,000000	0,731621
851,000000	0,731794
850,000000	0,731933
849,000000	0,732175
848,000000	0,732532
847,000000	0,732945
846,000000	0,733318
845,000000	0,733510
844,000000	0,733440
843,000000	0,733176
842,000000	0,732841
841,000000	0,732463
840,000000	0,731994
839,000000	0,731400
838,000000	0,730663
837,000000	0,729700
836,000000	0,728390
835,000000	0,726628
834,000000	0,724240
833,000000	0,720925
832,000000	0,716431
831,000000	0,710841
830,000000	0,704630
829,000000	0,698393
828,000000	0,692587
827,000000	0,687554
826,000000	0,683700
825,000000	0,681524
824,000000	0,681448
823,000000	0,683523
822,000000	0,687333
821,000000	0,692135
820,000000	0,697125
819,000000	0,701674
818,000000	0,705396
817,000000	0,708142
816,000000	0,709941
815,000000	0,710948
814,000000	0,711355
813,000000	0,711319
812,000000	0,710906
811,000000	0,710092
810,000000	0,708863
809,000000	0,707287
808,000000	0,705516
807,000000	0,703689
806,000000	0,701868
805,000000	0,700053
804,000000	0,698254
803,000000	0,696539
802,000000	0,695035
801,000000	0,693837
800,000000	0,692921
799,000000	0,692152
798,000000	0,691449
797,000000	0,690905
796,000000	0,690699
795,000000	0,690892
794,000000	0,691367
793,000000	0,691952
792,000000	0,692568
791,000000	0,693249
790,000000	0,694040
789,000000	0,694910
788,000000	0,695727
787,000000	0,696354
786,000000	0,696736
785,000000	0,696899
784,000000	0,696866
783,000000	0,696642
782,000000	0,696285
781,000000	0,695886
780,000000	0,695447
779,000000	0,694850
778,000000	0,694021
777,000000	0,693069
776,000000	0,692206
775,000000	0,691569
774,000000	0,691147
773,000000	0,690808
772,000000	0,690375
771,000000	0,689729
770,000000	0,688897
769,000000	0,688020
768,000000	0,687239
767,000000	0,686645
766,000000	0,686262
765,000000	0,685987
764,000000	0,685603
763,000000	0,684989
762,000000	0,684286
761,000000	0,683700
760,000000	0,683219
759,000000	0,682711
758,000000	0,682185
757,000000	0,681705
756,000000	0,681107
755,000000	0,680180
754,000000	0,679103
753,000000	0,678308
752,000000	0,677871
751,000000	0,677396
750,000000	0,676600
749,000000	0,675613
748,000000	0,674603
747,000000	0,673514
746,000000	0,672342
745,000000	0,671243
744,000000	0,670200
743,000000	0,668963
742,000000	0,667531
741,000000	0,666299
740,000000	0,665514
739,000000	0,664976
738,000000	0,664438
737,000000	0,663854
736,000000	0,663074
735,000000	0,661781
734,000000	0,660022
733,000000	0,658296
732,000000	0,656881
731,000000	0,655551
730,000000	0,654184
729,000000	0,653061
728,000000	0,652314
727,000000	0,651691
726,000000	0,651040
725,000000	0,650125
724,000000	0,647722
723,000000	0,642212
722,000000	0,634152
721,000000	0,627221
720,000000	0,625214
719,000000	0,628294
718,000000	0,633156
717,000000	0,636537
716,000000	0,637487
715,000000	0,636717
714,000000	0,635115
713,000000	0,633259
712,000000	0,631396
711,000000	0,629415
710,000000	0,627115
709,000000	0,624570
708,000000	0,621937
707,000000	0,619149
706,000000	0,616185
705,000000	0,613333
704,000000	0,610706
703,000000	0,607848
702,000000	0,604281
701,000000	0,600091
700,000000	0,595570
699,000000	0,590733
698,000000	0,585613
697,000000	0,580463
696,000000	0,575228
695,000000	0,569437
694,000000	0,563050
693,000000	0,556557
692,000000	0,549839
691,000000	0,542047
690,000000	0,533384
689,000000	0,525804
688,000000	0,520924
687,000000	0,518264
686,000000	0,516486
685,000000	0,515165
684,000000	0,514212
683,000000	0,512920
682,000000	0,510973
681,000000	0,509262
680,000000	0,508362
679,000000	0,507594
678,000000	0,506741
677,000000	0,506950
676,000000	0,508636
675,000000	0,510674
674,000000	0,512129
673,000000	0,510126
672,000000	0,493975
671,000000	0,449869
670,000000	0,381526
669,000000	0,322184
668,000000	0,312899
667,000000	0,362793
666,000000	0,438004
665,000000	0,494816
664,000000	0,516538
663,000000	0,515635
662,000000	0,509086
661,000000	0,502742
660,000000	0,496359
659,000000	0,490999
658,000000	0,487790
657,000000	0,485472
656,000000	0,482867
655,000000	0,480729
654,000000	0,479515
653,000000	0,477968
652,000000	0,475325
651,000000	0,472696
650,000000	0,471285
649,000000	0,471184
648,000000	0,472466
647,000000	0,475413
646,000000	0,479087
645,000000	0,481644
644,000000	0,482599
643,000000	0,483132
642,000000	0,483793
641,000000	0,483862
640,000000	0,483204
639,000000	0,482798
638,000000	0,482820
637,000000	0,482175
636,000000	0,480595
635,000000	0,479424
634,000000	0,479561
633,000000	0,480202
632,000000	0,480440
631,000000	0,480476
630,000000	0,480382
629,000000	0,479123
628,000000	0,476015
627,000000	0,472057
626,000000	0,468800
625,000000	0,466671
624,000000	0,465187
623,000000	0,463899
622,000000	0,462154
621,000000	0,458767
620,000000	0,453120
619,000000	0,446429
618,000000	0,441100
617,000000	0,438794
616,000000	0,439251
615,000000	0,440661
614,000000	0,441027
613,000000	0,439493
612,000000	0,436694
611,000000	0,433729
610,000000	0,430895
609,000000	0,427720
608,000000	0,423974
607,000000	0,420075
606,000000	0,416581
605,000000	0,413782
604,000000	0,411660
603,000000	0,409781
602,000000	0,407478
601,000000	0,404670
600,000000	0,402232
599,000000	0,400874
598,000000	0,400046
597,000000	0,398573
596,000000	0,396008
595,000000	0,392567
594,000000	0,388315
593,000000	0,383553
592,000000	0,379635
591,000000	0,377967
590,000000	0,378088
589,000000	0,377920
588,000000	0,376079
587,000000	0,373044
586,000000	0,369899
585,000000	0,366921
584,000000	0,363736
583,000000	0,360089
582,000000	0,356153
581,000000	0,352493
580,000000	0,349625
579,000000	0,347221
578,000000	0,344156
577,000000	0,340129
576,000000	0,336633
575,000000	0,335178
574,000000	0,335006
573,000000	0,333812
572,000000	0,330608
571,000000	0,326489
570,000000	0,322706
569,000000	0,319514
568,000000	0,317004
567,000000	0,315490
566,000000	0,314549
565,000000	0,313019
564,000000	0,310517
563,000000	0,307937
562,000000	0,305922
561,000000	0,303956
560,000000	0,301437
559,000000	0,298588
558,000000	0,295779
557,000000	0,292915
556,000000	0,290088
555,000000	0,287848
554,000000	0,286228
553,000000	0,284351
552,000000	0,281652
551,000000	0,278632
550,000000	0,275897
549,000000	0,273250
548,000000	0,270427
547,000000	0,267950
546,000000	0,266481
545,000000	0,265855
544,000000	0,265380
543,000000	0,264635
542,000000	0,263478
541,000000	0,261775
540,000000	0,259604
539,000000	0,257339
538,000000	0,255157
537,000000	0,252960
536,000000	0,250934
535,000000	0,249531
534,000000	0,248610
533,000000	0,247392
532,000000	0,245576
531,000000	0,243606
530,000000	0,241376
529,000000	0,237716
528,000000	0,232160
527,000000	0,226460
526,000000	0,223277
525,000000	0,223415
524,000000	0,225069
523,000000	0,225603
522,000000	0,223462
521,000000	0,218734
520,000000	0,212708
519,000000	0,207171
518,000000	0,203674
517,000000	0,202979
516,000000	0,204805
515,000000	0,207836
514,000000	0,210265
513,000000	0,211002
512,000000	0,210425
511,000000	0,209493
510,000000	0,208246
509,000000	0,206108
508,000000	0,203498
507,000000	0,201848
506,000000	0,201387
505,000000	0,200289
504,000000	0,197144
503,000000	0,193396
502,000000	0,192025
501,000000	0,193991
500,000000	0,197252
499,000000	0,199223
498,000000	0,199108
497,000000	0,197667
496,000000	0,195640
495,000000	0,193129
494,000000	0,190118
493,000000	0,187028
492,000000	0,184638
491,000000	0,183476
490,000000	0,183217
489,000000	0,182734
488,000000	0,180919
487,000000	0,177587
486,000000	0,173596
485,000000	0,170215
484,000000	0,168373
483,000000	0,168158
482,000000	0,168735
481,000000	0,168844
480,000000	0,167726
479,000000	0,165646
478,000000	0,163394
477,000000	0,161150
476,000000	0,158049
475,000000	0,153168
474,000000	0,147101
473,000000	0,142292
472,000000	0,141074
471,000000	0,143255
470,000000	0,146170
469,000000	0,147450
468,000000	0,147300
467,000000	0,147350
466,000000	0,148019
465,000000	0,148145
464,000000	0,147034
463,000000	0,145345
462,000000	0,143384
461,000000	0,139825
460,000000	0,133502
459,000000	0,126137
458,000000	0,121838
457,000000	0,123195
456,000000	0,128451
455,000000	0,133085
454,000000	0,134192
453,000000	0,132759
452,000000	0,131572
451,000000	0,131702
450,000000	0,131767
449,000000	0,130363
448,000000	0,127904
447,000000	0,125554
446,000000	0,123368
445,000000	0,120549
444,000000	0,117194
443,000000	0,114660
442,000000	0,114035
441,000000	0,114901
440,000000	0,115698
439,000000	0,114944
438,000000	0,112243
437,000000	0,108620
436,000000	0,105801
435,000000	0,104592
434,000000	0,104111
433,000000	0,103006
432,000000	0,101104
431,000000	0,099223
430,000000	0,097695
429,000000	0,095991
428,000000	0,093635
427,000000	0,090595
426,000000	0,086956
425,000000	0,083013
424,000000	0,079417
423,000000	0,076136
422,000000	0,071616
421,000000	0,064576
420,000000	0,056910
419,000000	0,053020
418,000000	0,055339
417,000000	0,061572
416,000000	0,067175
415,000000	0,069622
414,000000	0,069379
413,000000	0,067835
412,000000	0,065821
411,000000	0,063755
410,000000	0,061906
409,000000	0,060203
408,000000	0,058402
407,000000	0,056504
406,000000	0,054698
405,000000	0,052976
404,000000	0,051100
403,000000	0,048737
402,000000	0,045413
401,000000	0,040773
400,000000	0,035280
399,000000	0,030335
398,000000	0,027270
397,000000	0,026350
396,000000	0,026957
395,000000	0,028386
394,000000	0,030026
393,000000	0,031196
392,000000	0,031478
391,000000	0,031018
390,000000	0,030124
389,000000	0,028777
388,000000	0,026836
387,000000	0,024530
386,000000	0,022420
385,000000	0,020988
384,000000	0,020381
383,000000	0,020352
382,000000	0,020329
381,000000	0,019792
380,000000	0,018705
379,000000	0,017277
378,000000	0,015412
377,000000	0,012973
376,000000	0,010599
375,000000	0,009435
374,000000	0,009731
373,000000	0,010376
372,000000	0,010239
371,000000	0,009397
370,000000	0,008609
369,000000	0,008168
368,000000	0,007841
367,000000	0,007537
366,000000	0,007261
365,000000	0,006797
364,000000	0,006045
363,000000	0,005348
362,000000	0,005016
361,000000	0,004855
360,000000	0,004547
359,000000	0,004109
358,000000	0,003679
357,000000	0,003307
356,000000	0,002998
355,000000	0,002798
354,000000	0,002668
353,000000	0,002369
352,000000	0,001806
351,000000	0,001284
350,000000	0,001089
349,000000	0,001067
348,000000	0,000964
347,000000	0,000885
346,000000	0,000916
345,000000	0,000809
344,000000	0,000551
343,000000	0,000363
342,000000	0,000344
341,000000	0,000444
340,000000	0,000475
339,000000	0,000275
338,000000	0,000257
337,000000	0,000695
336,000000	0,000795
335,000000	0,000773
334,000000	0,000891
333,000000	0,000787
332,000000	0,000385
331,000000	0,000257
330,000000	0,000257
329,000000	0,000141
328,000000	0,000195
327,000000	0,000513
326,000000	0,000947
325,000000	0,001273
324,000000	0,001328
323,000000	0,001041
322,000000	0,000737
321,000000	0,000997
320,000000	0,000939
319,000000	0,000561
318,000000	0,000417
317,000000	0,000284
316,000000	0,000393
315,000000	0,000775
314,000000	0,000794
313,000000	0,000531
312,000000	0,000408
311,000000	0,000703
310,000000	0,001153
309,000000	0,001258
308,000000	0,001005
307,000000	0,000799
306,000000	0,000489
305,000000	0,000222
304,000000	0,000441
303,000000	0,000542
302,000000	0,000502
301,000000	0,000372
300,000000	0,000595
