PE IR       SUBTECH     SPECTRUM    ASCII       PEDS        4.00        
   -1
refluctance back 8res.ASC
25/05/20
11:49:24.00
25/05/20
11:49:24.00
Praktikum
Sample 031 By Praktikum date Dienstag, Mai 20 2025
200,000000
#HDR
-1
-1
#GR
cm-1
EGY
1.0
0.0
4000,000000
-2,000000
1901
8
13,605161
0,000086
#DATA
4000,000000	9,148000
3998,000000	9,147687
3996,000000	9,141927
3994,000000	9,137153
3992,000000	9,144404
3990,000000	9,163738
3988,000000	9,182413
3986,000000	9,192431
3984,000000	9,197563
3982,000000	9,199345
3980,000000	9,190946
3978,000000	9,171928
3976,000000	9,156171
3974,000000	9,156629
3972,000000	9,171634
3970,000000	9,191300
3968,000000	9,206524
3966,000000	9,208743
3964,000000	9,195372
3962,000000	9,180038
3960,000000	9,180309
3958,000000	9,187548
3956,000000	9,167606
3954,000000	9,102865
3952,000000	9,016569
3950,000000	8,944093
3948,000000	8,899943
3946,000000	8,889013
3944,000000	8,925816
3942,000000	9,009769
3940,000000	9,091435
3938,000000	9,100842
3936,000000	9,019662
3934,000000	8,904515
3932,000000	8,829497
3930,000000	8,818773
3928,000000	8,837999
3926,000000	8,836293
3924,000000	8,790235
3922,000000	8,722550
3920,000000	8,693282
3918,000000	8,763012
3916,000000	8,939730
3914,000000	9,143168
3912,000000	9,224471
3910,000000	9,050226
3908,000000	8,609480
3906,000000	8,061579
3904,000000	7,661975
3902,000000	7,595911
3900,000000	7,845433
3898,000000	8,209465
3896,000000	8,463553
3894,000000	8,514241
3892,000000	8,418775
3890,000000	8,281687
3888,000000	8,159690
3886,000000	8,069052
3884,000000	8,043984
3882,000000	8,125261
3880,000000	8,274855
3878,000000	8,352731
3876,000000	8,238304
3874,000000	7,966929
3872,000000	7,701940
3870,000000	7,575905
3868,000000	7,608968
3866,000000	7,766393
3864,000000	7,994869
3862,000000	8,155477
3860,000000	8,031808
3858,000000	7,545352
3856,000000	6,957941
3854,000000	6,728018
3852,000000	7,089444
3850,000000	7,805888
3848,000000	8,381417
3846,000000	8,485101
3844,000000	8,155905
3842,000000	7,674800
3840,000000	7,325252
3838,000000	7,258398
3836,000000	7,478274
3834,000000	7,874497
3832,000000	8,277042
3830,000000	8,528661
3828,000000	8,539654
3826,000000	8,308571
3824,000000	7,928124
3822,000000	7,577345
3820,000000	7,456367
3818,000000	7,665829
3816,000000	8,119793
3814,000000	8,586410
3812,000000	8,832251
3810,000000	8,758242
3808,000000	8,435650
3806,000000	8,044962
3804,000000	7,775034
3802,000000	7,744835
3800,000000	7,975812
3798,000000	8,406280
3796,000000	8,919837
3794,000000	9,379053
3792,000000	9,673709
3790,000000	9,769339
3788,000000	9,710687
3786,000000	9,572203
3784,000000	9,418302
3782,000000	9,312531
3780,000000	9,314971
3778,000000	9,416022
3776,000000	9,490671
3774,000000	9,400893
3772,000000	9,162834
3770,000000	8,949976
3768,000000	8,895394
3766,000000	8,947712
3764,000000	8,963530
3762,000000	8,874645
3760,000000	8,689198
3758,000000	8,385598
3756,000000	7,919733
3754,000000	7,342150
3752,000000	6,815631
3750,000000	6,490491
3748,000000	6,419064
3746,000000	6,584839
3744,000000	6,910610
3742,000000	7,213793
3740,000000	7,284289
3738,000000	7,104372
3736,000000	6,928665
3734,000000	7,040318
3732,000000	7,445152
3730,000000	7,889616
3728,000000	8,158506
3726,000000	8,273204
3724,000000	8,397738
3722,000000	8,621045
3720,000000	8,854222
3718,000000	8,908710
3716,000000	8,680021
3714,000000	8,294618
3712,000000	8,052470
3710,000000	8,158921
3708,000000	8,519246
3706,000000	8,857964
3704,000000	9,030127
3702,000000	9,126575
3700,000000	9,254214
3698,000000	9,325713
3696,000000	9,150862
3694,000000	8,704741
3692,000000	8,229140
3690,000000	8,052240
3688,000000	8,313272
3686,000000	8,826781
3684,000000	9,193775
3682,000000	9,098291
3680,000000	8,551194
3678,000000	7,866088
3676,000000	7,391520
3674,000000	7,289368
3672,000000	7,544772
3670,000000	8,085956
3668,000000	8,802125
3666,000000	9,489871
3664,000000	9,910917
3662,000000	9,958805
3660,000000	9,718761
3658,000000	9,330291
3656,000000	8,838922
3654,000000	8,246014
3652,000000	7,680549
3650,000000	7,423849
3648,000000	7,689905
3646,000000	8,387414
3644,000000	9,160217
3642,000000	9,678042
3640,000000	9,850239
3638,000000	9,749183
3636,000000	9,416940
3634,000000	8,873955
3632,000000	8,287943
3630,000000	7,970854
3628,000000	8,092641
3626,000000	8,467422
3624,000000	8,729758
3622,000000	8,709672
3620,000000	8,547701
3618,000000	8,455175
3616,000000	8,472813
3614,000000	8,517195
3612,000000	8,561044
3610,000000	8,674978
3608,000000	8,905427
3606,000000	9,187076
3604,000000	9,394878
3602,000000	9,456399
3600,000000	9,404951
3598,000000	9,331054
3596,000000	9,283628
3594,000000	9,223114
3592,000000	9,094247
3590,000000	8,947431
3588,000000	8,938599
3586,000000	9,169139
3584,000000	9,555823
3582,000000	9,906449
3580,000000	10,110999
3578,000000	10,194922
3576,000000	10,192257
3574,000000	10,051866
3572,000000	9,728385
3570,000000	9,326194
3568,000000	9,072068
3566,000000	9,126217
3564,000000	9,445734
3562,000000	9,838700
3560,000000	10,128065
3558,000000	10,253950
3556,000000	10,254635
3554,000000	10,189599
3552,000000	10,094288
3550,000000	9,993805
3548,000000	9,932260
3546,000000	9,961068
3544,000000	10,088666
3542,000000	10,256418
3540,000000	10,385586
3538,000000	10,441018
3536,000000	10,437075
3534,000000	10,391632
3532,000000	10,305164
3530,000000	10,191438
3528,000000	10,099023
3526,000000	10,080499
3524,000000	10,147722
3522,000000	10,268227
3520,000000	10,393811
3518,000000	10,482276
3516,000000	10,508468
3514,000000	10,475641
3512,000000	10,413827
3510,000000	10,353694
3508,000000	10,305320
3506,000000	10,270196
3504,000000	10,262723
3502,000000	10,299249
3500,000000	10,370540
3498,000000	10,443431
3496,000000	10,492469
3494,000000	10,515901
3492,000000	10,520303
3490,000000	10,506620
3488,000000	10,477517
3486,000000	10,446673
3484,000000	10,431709
3482,000000	10,441933
3480,000000	10,474978
3478,000000	10,519263
3476,000000	10,558830
3474,000000	10,582621
3472,000000	10,591352
3470,000000	10,591912
3468,000000	10,587251
3466,000000	10,578401
3464,000000	10,573155
3462,000000	10,582533
3460,000000	10,607753
3458,000000	10,637314
3456,000000	10,655497
3454,000000	10,648527
3452,000000	10,608743
3450,000000	10,546543
3448,000000	10,495485
3446,000000	10,489953
3444,000000	10,533438
3442,000000	10,597913
3440,000000	10,654422
3438,000000	10,693813
3436,000000	10,718710
3434,000000	10,732378
3432,000000	10,740651
3430,000000	10,750043
3428,000000	10,756611
3426,000000	10,748674
3424,000000	10,728305
3422,000000	10,718549
3420,000000	10,739290
3418,000000	10,783998
3416,000000	10,829747
3414,000000	10,862018
3412,000000	10,881083
3410,000000	10,891042
3408,000000	10,894275
3406,000000	10,894278
3404,000000	10,894224
3402,000000	10,893043
3400,000000	10,888716
3398,000000	10,884773
3396,000000	10,888508
3394,000000	10,903658
3392,000000	10,927460
3390,000000	10,953500
3388,000000	10,975449
3386,000000	10,991060
3384,000000	11,004493
3382,000000	11,021700
3380,000000	11,042304
3378,000000	11,059775
3376,000000	11,069658
3374,000000	11,072564
3372,000000	11,068814
3370,000000	11,057523
3368,000000	11,043597
3366,000000	11,037892
3364,000000	11,045829
3362,000000	11,061360
3360,000000	11,076415
3358,000000	11,090449
3356,000000	11,106641
3354,000000	11,124182
3352,000000	11,139721
3350,000000	11,152507
3348,000000	11,162957
3346,000000	11,169250
3344,000000	11,169440
3342,000000	11,165001
3340,000000	11,159667
3338,000000	11,157394
3336,000000	11,162222
3334,000000	11,175485
3332,000000	11,191674
3330,000000	11,202363
3328,000000	11,206531
3326,000000	11,211903
3324,000000	11,223593
3322,000000	11,237284
3320,000000	11,246209
3318,000000	11,248798
3316,000000	11,246427
3314,000000	11,240303
3312,000000	11,235144
3310,000000	11,239648
3308,000000	11,257159
3306,000000	11,279948
3304,000000	11,297663
3302,000000	11,307477
3300,000000	11,311961
3298,000000	11,312331
3296,000000	11,309534
3294,000000	11,308268
3292,000000	11,313423
3290,000000	11,324307
3288,000000	11,336414
3286,000000	11,346689
3284,000000	11,352969
3282,000000	11,351836
3280,000000	11,342321
3278,000000	11,330705
3276,000000	11,326986
3274,000000	11,336605
3272,000000	11,356998
3270,000000	11,380473
3268,000000	11,398937
3266,000000	11,408315
3264,000000	11,410583
3262,000000	11,410355
3260,000000	11,409612
3258,000000	11,408783
3256,000000	11,411637
3254,000000	11,422479
3252,000000	11,437475
3250,000000	11,446015
3248,000000	11,444378
3246,000000	11,441595
3244,000000	11,447763
3242,000000	11,461856
3240,000000	11,475841
3238,000000	11,485585
3236,000000	11,492163
3234,000000	11,496986
3232,000000	11,501696
3230,000000	11,509698
3228,000000	11,521929
3226,000000	11,533277
3224,000000	11,538107
3222,000000	11,537625
3220,000000	11,537480
3218,000000	11,540437
3216,000000	11,545916
3214,000000	11,554745
3212,000000	11,569380
3210,000000	11,589702
3208,000000	11,611752
3206,000000	11,629970
3204,000000	11,639250
3202,000000	11,638029
3200,000000	11,632232
3198,000000	11,633083
3196,000000	11,646598
3194,000000	11,666821
3192,000000	11,682770
3190,000000	11,690093
3188,000000	11,692254
3186,000000	11,693064
3184,000000	11,693043
3182,000000	11,692835
3180,000000	11,695598
3178,000000	11,704546
3176,000000	11,719742
3174,000000	11,737658
3172,000000	11,753348
3170,000000	11,764000
3168,000000	11,771319
3166,000000	11,779258
3164,000000	11,789042
3162,000000	11,798378
3160,000000	11,805766
3158,000000	11,812589
3156,000000	11,820119
3154,000000	11,827648
3152,000000	11,834876
3150,000000	11,842999
3148,000000	11,851983
3146,000000	11,859946
3144,000000	11,866521
3142,000000	11,873136
3140,000000	11,878724
3138,000000	11,879701
3136,000000	11,876582
3134,000000	11,875855
3132,000000	11,881677
3130,000000	11,889644
3128,000000	11,892766
3126,000000	11,890431
3124,000000	11,887407
3122,000000	11,887030
3120,000000	11,890042
3118,000000	11,898011
3116,000000	11,912800
3114,000000	11,932772
3112,000000	11,952846
3110,000000	11,968135
3108,000000	11,975747
3106,000000	11,974900
3104,000000	11,968331
3102,000000	11,962694
3100,000000	11,964622
3098,000000	11,976345
3096,000000	11,996016
3094,000000	12,020237
3092,000000	12,044190
3090,000000	12,061647
3088,000000	12,068369
3086,000000	12,065612
3084,000000	12,058945
3082,000000	12,054766
3080,000000	12,058367
3078,000000	12,072106
3076,000000	12,091716
3074,000000	12,106306
3072,000000	12,106270
3070,000000	12,092782
3068,000000	12,077481
3066,000000	12,072247
3064,000000	12,079687
3062,000000	12,093395
3060,000000	12,105943
3058,000000	12,115758
3056,000000	12,126260
3054,000000	12,139559
3052,000000	12,153335
3050,000000	12,164847
3048,000000	12,175421
3046,000000	12,188009
3044,000000	12,201304
3042,000000	12,209570
3040,000000	12,208086
3038,000000	12,196812
3036,000000	12,179905
3034,000000	12,164771
3032,000000	12,159742
3030,000000	12,167619
3028,000000	12,181204
3026,000000	12,189216
3024,000000	12,187198
3022,000000	12,179054
3020,000000	12,169533
3018,000000	12,161191
3016,000000	12,159315
3014,000000	12,171965
3012,000000	12,201075
3010,000000	12,238079
3008,000000	12,272082
3006,000000	12,299097
3004,000000	12,320488
3002,000000	12,336656
3000,000000	12,346620
2998,000000	12,351348
2996,000000	12,353480
2994,000000	12,354710
2992,000000	12,355859
2990,000000	12,357684
2988,000000	12,359525
2986,000000	12,358736
2984,000000	12,353320
2982,000000	12,343677
2980,000000	12,330452
2978,000000	12,312825
2976,000000	12,290197
2974,000000	12,263123
2972,000000	12,231577
2970,000000	12,194901
2968,000000	12,155277
2966,000000	12,118351
2964,000000	12,088719
2962,000000	12,066867
2960,000000	12,051769
2958,000000	12,043434
2956,000000	12,040932
2954,000000	12,040686
2952,000000	12,038820
2950,000000	12,033293
2948,000000	12,022055
2946,000000	12,001903
2944,000000	11,971143
2942,000000	11,931729
2940,000000	11,887240
2938,000000	11,840768
2936,000000	11,795589
2934,000000	11,755094
2932,000000	11,720736
2930,000000	11,692720
2928,000000	11,674593
2926,000000	11,673933
2924,000000	11,696504
2922,000000	11,741273
2920,000000	11,802442
2918,000000	11,873375
2916,000000	11,947155
2914,000000	12,016888
2912,000000	12,078559
2910,000000	12,132463
2908,000000	12,180144
2906,000000	12,221829
2904,000000	12,257926
2902,000000	12,290299
2900,000000	12,320233
2898,000000	12,347169
2896,000000	12,370958
2894,000000	12,393070
2892,000000	12,414061
2890,000000	12,432173
2888,000000	12,445910
2886,000000	12,455789
2884,000000	12,462009
2882,000000	12,462892
2880,000000	12,457266
2878,000000	12,446096
2876,000000	12,430052
2874,000000	12,407551
2872,000000	12,376869
2870,000000	12,338349
2868,000000	12,293787
2866,000000	12,246421
2864,000000	12,202904
2862,000000	12,172483
2860,000000	12,161541
2858,000000	12,170071
2856,000000	12,194447
2854,000000	12,231278
2852,000000	12,277570
2850,000000	12,329993
2848,000000	12,386136
2846,000000	12,444678
2844,000000	12,503133
2842,000000	12,557355
2840,000000	12,604670
2838,000000	12,645549
2836,000000	12,681022
2834,000000	12,710986
2832,000000	12,736022
2830,000000	12,758297
2828,000000	12,779064
2826,000000	12,797446
2824,000000	12,812986
2822,000000	12,827113
2820,000000	12,840750
2818,000000	12,852839
2816,000000	12,862731
2814,000000	12,871630
2812,000000	12,880376
2810,000000	12,887988
2808,000000	12,893884
2806,000000	12,899264
2804,000000	12,904949
2802,000000	12,910091
2800,000000	12,914380
2798,000000	12,919304
2796,000000	12,925901
2794,000000	12,933483
2792,000000	12,941764
2790,000000	12,951989
2788,000000	12,964529
2786,000000	12,977727
2784,000000	12,990361
2782,000000	13,003080
2780,000000	13,016077
2778,000000	13,027774
2776,000000	13,037175
2774,000000	13,045335
2772,000000	13,053166
2770,000000	13,059924
2768,000000	13,065229
2766,000000	13,070268
2764,000000	13,075745
2762,000000	13,080712
2760,000000	13,084759
2758,000000	13,089080
2756,000000	13,094259
2754,000000	13,099136
2752,000000	13,103126
2750,000000	13,107367
2748,000000	13,112437
2746,000000	13,117191
2744,000000	13,121040
2742,000000	13,125116
2740,000000	13,129966
2738,000000	13,134491
2736,000000	13,138316
2734,000000	13,142894
2732,000000	13,148859
2730,000000	13,154690
2728,000000	13,159282
2726,000000	13,163654
2724,000000	13,168789
2722,000000	13,174038
2720,000000	13,178963
2718,000000	13,184465
2716,000000	13,190783
2714,000000	13,196526
2712,000000	13,201047
2710,000000	13,205614
2708,000000	13,211146
2706,000000	13,216902
2704,000000	13,222578
2702,000000	13,229299
2700,000000	13,237353
2698,000000	13,245209
2696,000000	13,252077
2694,000000	13,259169
2692,000000	13,267125
2690,000000	13,274532
2688,000000	13,280266
2686,000000	13,285154
2684,000000	13,289944
2682,000000	13,293909
2680,000000	13,296756
2678,000000	13,299757
2676,000000	13,303580
2674,000000	13,307101
2672,000000	13,309611
2670,000000	13,312129
2668,000000	13,315310
2666,000000	13,318181
2664,000000	13,320277
2662,000000	13,322814
2660,000000	13,326520
2658,000000	13,330301
2656,000000	13,333442
2654,000000	13,336967
2652,000000	13,341607
2650,000000	13,346386
2648,000000	13,350525
2646,000000	13,354760
2644,000000	13,359557
2642,000000	13,364046
2640,000000	13,367878
2638,000000	13,372162
2636,000000	13,377324
2634,000000	13,382103
2632,000000	13,385762
2630,000000	13,389382
2628,000000	13,393727
2626,000000	13,397921
2624,000000	13,401388
2622,000000	13,405130
2620,000000	13,409825
2618,000000	13,414585
2616,000000	13,418785
2614,000000	13,423189
2612,000000	13,428167
2610,000000	13,432653
2608,000000	13,436009
2606,000000	13,438978
2604,000000	13,441838
2602,000000	13,443518
2600,000000	13,443706
2598,000000	13,443794
2596,000000	13,444691
2594,000000	13,445642
2592,000000	13,446273
2590,000000	13,447766
2588,000000	13,450811
2586,000000	13,454404
2584,000000	13,457788
2582,000000	13,461698
2580,000000	13,466455
2578,000000	13,470857
2576,000000	13,474172
2574,000000	13,477424
2572,000000	13,481397
2570,000000	13,485188
2568,000000	13,487938
2566,000000	13,490243
2564,000000	13,492694
2562,000000	13,494718
2560,000000	13,496086
2558,000000	13,497833
2556,000000	13,500515
2554,000000	13,503137
2552,000000	13,504954
2550,000000	13,506687
2548,000000	13,508952
2546,000000	13,511121
2544,000000	13,512839
2542,000000	13,514978
2540,000000	13,517970
2538,000000	13,520820
2536,000000	13,522875
2534,000000	13,525024
2532,000000	13,528032
2530,000000	13,531258
2528,000000	13,534083
2526,000000	13,537075
2524,000000	13,540579
2522,000000	13,543645
2520,000000	13,545464
2518,000000	13,546519
2516,000000	13,547273
2514,000000	13,547181
2512,000000	13,546056
2510,000000	13,544948
2508,000000	13,544602
2506,000000	13,544325
2504,000000	13,543466
2502,000000	13,542622
2500,000000	13,542335
2498,000000	13,541957
2496,000000	13,540987
2494,000000	13,540223
2492,000000	13,540405
2490,000000	13,540904
2488,000000	13,540912
2486,000000	13,540812
2484,000000	13,541178
2482,000000	13,541518
2480,000000	13,541234
2478,000000	13,540871
2476,000000	13,541149
2474,000000	13,541647
2472,000000	13,541658
2470,000000	13,541538
2468,000000	13,541984
2466,000000	13,542655
2464,000000	13,542797
2462,000000	13,542638
2460,000000	13,542973
2458,000000	13,543794
2456,000000	13,544544
2454,000000	13,545341
2452,000000	13,546771
2450,000000	13,548724
2448,000000	13,550553
2446,000000	13,552221
2444,000000	13,554227
2442,000000	13,556499
2440,000000	13,558476
2438,000000	13,560201
2436,000000	13,562140
2434,000000	13,563916
2432,000000	13,564501
2430,000000	13,563894
2428,000000	13,563295
2426,000000	13,563242
2424,000000	13,562940
2422,000000	13,561997
2420,000000	13,561329
2418,000000	13,561448
2416,000000	13,561387
2414,000000	13,560459
2412,000000	13,559627
2410,000000	13,559718
2408,000000	13,559808
2406,000000	13,559041
2404,000000	13,558440
2402,000000	13,558955
2400,000000	13,559324
2398,000000	13,557797
2396,000000	13,554130
2394,000000	13,542907
2392,000000	13,504737
2390,000000	13,401186
2388,000000	13,173003
2386,000000	12,752153
2384,000000	12,082149
2382,000000	11,155118
2380,000000	10,031044
2378,000000	8,814135
2376,000000	7,611065
2374,000000	6,500666
2372,000000	5,532251
2370,000000	4,729650
2368,000000	4,096778
2366,000000	3,625764
2364,000000	3,313920
2362,000000	3,164977
2360,000000	3,186887
2358,000000	3,415301
2356,000000	3,900510
2354,000000	4,622211
2352,000000	5,390316
2350,000000	5,892498
2348,000000	5,916049
2346,000000	5,534873
2344,000000	5,044497
2342,000000	4,710707
2340,000000	4,601739
2338,000000	4,633497
2336,000000	4,714571
2334,000000	4,816742
2332,000000	4,953416
2330,000000	5,139337
2328,000000	5,379796
2326,000000	5,671909
2324,000000	6,017238
2322,000000	6,431622
2320,000000	6,924818
2318,000000	7,469375
2316,000000	8,007434
2314,000000	8,504349
2312,000000	8,979911
2310,000000	9,470642
2308,000000	9,977484
2306,000000	10,466462
2304,000000	10,907692
2302,000000	11,292221
2300,000000	11,622697
2298,000000	11,906619
2296,000000	12,158875
2294,000000	12,394477
2292,000000	12,615660
2290,000000	12,817555
2288,000000	12,996312
2286,000000	13,143475
2284,000000	13,241367
2282,000000	13,278334
2280,000000	13,268485
2278,000000	13,241360
2276,000000	13,216402
2274,000000	13,198370
2272,000000	13,189918
2270,000000	13,194945
2268,000000	13,210791
2266,000000	13,230983
2264,000000	13,255190
2262,000000	13,286684
2260,000000	13,322072
2258,000000	13,354323
2256,000000	13,383558
2254,000000	13,414348
2252,000000	13,445003
2250,000000	13,469784
2248,000000	13,489306
2246,000000	13,508496
2244,000000	13,526598
2242,000000	13,539164
2240,000000	13,547793
2238,000000	13,557967
2236,000000	13,569024
2234,000000	13,576339
2232,000000	13,580965
2230,000000	13,587700
2228,000000	13,595485
2226,000000	13,599275
2224,000000	13,599674
2222,000000	13,601252
2220,000000	13,603437
2218,000000	13,602252
2216,000000	13,599173
2214,000000	13,598971
2212,000000	13,600722
2210,000000	13,599878
2208,000000	13,597429
2206,000000	13,597871
2204,000000	13,600237
2202,000000	13,600041
2200,000000	13,598205
2198,000000	13,599106
2196,000000	13,601710
2194,000000	13,601627
2192,000000	13,599894
2190,000000	13,600986
2188,000000	13,603901
2186,000000	13,604175
2184,000000	13,602595
2182,000000	13,603326
2180,000000	13,605161
2178,000000	13,603533
2176,000000	13,599213
2174,000000	13,596561
2172,000000	13,595062
2170,000000	13,591007
2168,000000	13,585605
2166,000000	13,582859
2164,000000	13,581693
2162,000000	13,578286
2160,000000	13,574117
2158,000000	13,573104
2156,000000	13,573424
2154,000000	13,570428
2152,000000	13,565422
2150,000000	13,562994
2148,000000	13,562202
2146,000000	13,558778
2144,000000	13,553437
2142,000000	13,549768
2140,000000	13,546644
2138,000000	13,541395
2136,000000	13,537225
2134,000000	13,538749
2132,000000	13,542772
2130,000000	13,542774
2128,000000	13,539509
2126,000000	13,538391
2124,000000	13,538979
2122,000000	13,536418
2120,000000	13,531078
2118,000000	13,527669
2116,000000	13,526912
2114,000000	13,526314
2112,000000	13,527015
2110,000000	13,531383
2108,000000	13,536467
2106,000000	13,537796
2104,000000	13,537400
2102,000000	13,539922
2100,000000	13,543705
2098,000000	13,543273
2096,000000	13,537960
2094,000000	13,531110
2092,000000	13,524314
2090,000000	13,519423
2088,000000	13,521370
2086,000000	13,531210
2084,000000	13,540692
2082,000000	13,541954
2080,000000	13,538109
2078,000000	13,537151
2076,000000	13,539727
2074,000000	13,540183
2072,000000	13,534587
2070,000000	13,521365
2068,000000	13,501116
2066,000000	13,482767
2064,000000	13,481554
2062,000000	13,501742
2060,000000	13,528444
2058,000000	13,545120
2056,000000	13,551874
2054,000000	13,557137
2052,000000	13,560964
2050,000000	13,557170
2048,000000	13,545199
2046,000000	13,529480
2044,000000	13,513715
2042,000000	13,504404
2040,000000	13,511244
2038,000000	13,533795
2036,000000	13,556230
2034,000000	13,565138
2032,000000	13,564397
2030,000000	13,564236
2028,000000	13,564191
2026,000000	13,556393
2024,000000	13,535622
2022,000000	13,500461
2020,000000	13,457086
2018,000000	13,428374
2016,000000	13,440447
2014,000000	13,489841
2012,000000	13,540075
2010,000000	13,563227
2008,000000	13,567555
2006,000000	13,572105
2004,000000	13,577015
2002,000000	13,571968
2000,000000	13,551970
1998,000000	13,506493
1996,000000	13,421866
1994,000000	13,318348
1992,000000	13,259866
1990,000000	13,291885
1988,000000	13,386827
1986,000000	13,478687
1984,000000	13,533636
1982,000000	13,560761
1980,000000	13,572066
1978,000000	13,570064
1976,000000	13,559439
1974,000000	13,537390
1972,000000	13,485128
1970,000000	13,403888
1968,000000	13,342450
1966,000000	13,350908
1964,000000	13,415522
1962,000000	13,476770
1960,000000	13,503789
1958,000000	13,511913
1956,000000	13,519155
1954,000000	13,523076
1952,000000	13,512975
1950,000000	13,468278
1948,000000	13,359794
1946,000000	13,200226
1944,000000	13,081333
1942,000000	13,100161
1940,000000	13,246150
1938,000000	13,410796
1936,000000	13,510537
1934,000000	13,551063
1932,000000	13,562306
1930,000000	13,535516
1928,000000	13,446488
1926,000000	13,296856
1924,000000	13,112053
1922,000000	12,936836
1920,000000	12,843367
1918,000000	12,890363
1916,000000	13,045882
1914,000000	13,195631
1912,000000	13,260747
1910,000000	13,270487
1908,000000	13,299755
1906,000000	13,368709
1904,000000	13,437941
1902,000000	13,467970
1900,000000	13,445730
1898,000000	13,372198
1896,000000	13,258373
1894,000000	13,131546
1892,000000	13,031613
1890,000000	13,001806
1888,000000	13,071417
1886,000000	13,220514
1884,000000	13,372531
1882,000000	13,459322
1880,000000	13,485736
1878,000000	13,479601
1876,000000	13,386362
1874,000000	13,109158
1872,000000	12,685336
1870,000000	12,345897
1868,000000	12,318475
1866,000000	12,600018
1864,000000	12,982643
1862,000000	13,265188
1860,000000	13,395788
1858,000000	13,435228
1856,000000	13,447452
1854,000000	13,427552
1852,000000	13,292817
1850,000000	12,960755
1848,000000	12,485390
1846,000000	12,095473
1844,000000	12,032081
1842,000000	12,325676
1840,000000	12,754723
1838,000000	13,035801
1836,000000	13,021140
1834,000000	12,743958
1832,000000	12,355396
1830,000000	12,047505
1828,000000	11,972123
1826,000000	12,161765
1824,000000	12,512104
1822,000000	12,862352
1820,000000	13,098738
1818,000000	13,181295
1816,000000	13,118584
1814,000000	12,964505
1812,000000	12,822188
1810,000000	12,774073
1808,000000	12,785994
1806,000000	12,728789
1804,000000	12,536527
1802,000000	12,295831
1800,000000	12,113500
1798,000000	11,955167
1796,000000	11,725497
1794,000000	11,492682
1792,000000	11,484346
1790,000000	11,789326
1788,000000	12,193096
1786,000000	12,413243
1784,000000	12,416295
1782,000000	12,360073
1780,000000	12,274052
1778,000000	11,993884
1776,000000	11,446663
1774,000000	10,867476
1772,000000	10,618775
1770,000000	10,840447
1768,000000	11,331592
1766,000000	11,742764
1764,000000	11,873917
1762,000000	11,803784
1760,000000	11,739568
1758,000000	11,739548
1756,000000	11,632978
1754,000000	11,276039
1752,000000	10,813604
1750,000000	10,554792
1748,000000	10,619828
1746,000000	10,834129
1744,000000	10,967963
1742,000000	10,921060
1740,000000	10,662035
1738,000000	10,203877
1736,000000	9,739814
1734,000000	9,632581
1732,000000	10,090845
1730,000000	10,924666
1728,000000	11,701086
1726,000000	12,070296
1724,000000	11,876505
1722,000000	11,143604
1720,000000	10,161829
1718,000000	9,476356
1716,000000	9,514726
1714,000000	10,167183
1712,000000	10,877741
1710,000000	11,147337
1708,000000	10,866527
1706,000000	10,193570
1704,000000	9,334778
1702,000000	8,524124
1700,000000	8,066041
1698,000000	8,212294
1696,000000	8,954716
1694,000000	9,940557
1692,000000	10,617119
1690,000000	10,567733
1688,000000	9,866101
1686,000000	9,084397
1684,000000	8,837817
1682,000000	9,246140
1680,000000	9,870879
1678,000000	10,189050
1676,000000	10,063897
1674,000000	9,760545
1672,000000	9,619888
1670,000000	9,769562
1668,000000	10,103057
1666,000000	10,459720
1664,000000	10,756397
1662,000000	10,917373
1660,000000	10,743394
1658,000000	10,034459
1656,000000	8,924354
1654,000000	7,941720
1652,000000	7,574810
1650,000000	7,844037
1648,000000	8,441897
1646,000000	9,141676
1644,000000	9,821117
1642,000000	10,213508
1640,000000	10,035525
1638,000000	9,465738
1636,000000	9,137289
1634,000000	9,448234
1632,000000	10,080833
1630,000000	10,438119
1628,000000	10,354733
1626,000000	10,125535
1624,000000	9,979196
1622,000000	9,849570
1620,000000	9,664833
1618,000000	9,564891
1616,000000	9,716632
1614,000000	10,078417
1612,000000	10,456307
1610,000000	10,705927
1608,000000	10,813025
1606,000000	10,847252
1604,000000	10,892545
1602,000000	10,977910
1600,000000	11,052293
1598,000000	11,060027
1596,000000	11,032043
1594,000000	11,044746
1592,000000	11,106133
1590,000000	11,162876
1588,000000	11,201114
1586,000000	11,229517
1584,000000	11,156455
1582,000000	10,823207
1580,000000	10,233098
1578,000000	9,640854
1576,000000	9,314398
1574,000000	9,274149
1572,000000	9,360728
1570,000000	9,471451
1568,000000	9,558950
1566,000000	9,435998
1564,000000	8,828506
1562,000000	7,773319
1560,000000	6,815571
1558,000000	6,600154
1556,000000	7,249820
1554,000000	8,280313
1552,000000	9,096597
1550,000000	9,408719
1548,000000	9,174785
1546,000000	8,444788
1544,000000	7,459783
1542,000000	6,729903
1540,000000	6,698674
1538,000000	7,313343
1536,000000	8,105989
1534,000000	8,693085
1532,000000	9,008736
1530,000000	9,073681
1528,000000	8,818629
1526,000000	8,262444
1524,000000	7,665772
1522,000000	7,342749
1520,000000	7,408163
1518,000000	7,777862
1516,000000	8,251167
1514,000000	8,505121
1512,000000	8,238884
1510,000000	7,559311
1508,000000	7,063465
1506,000000	7,265072
1504,000000	7,991402
1502,000000	8,594123
1500,000000	8,710066
1498,000000	8,543646
1496,000000	8,419096
1494,000000	8,378350
1492,000000	8,350160
1490,000000	8,434483
1488,000000	8,795996
1486,000000	9,386551
1484,000000	9,943081
1482,000000	10,201611
1480,000000	10,032488
1478,000000	9,486401
1476,000000	8,838189
1474,000000	8,481379
1472,000000	8,615576
1470,000000	9,058527
1468,000000	9,450779
1466,000000	9,573779
1464,000000	9,387187
1462,000000	8,902672
1460,000000	8,243674
1458,000000	7,760601
1456,000000	7,819068
1454,000000	8,394132
1452,000000	9,063136
1450,000000	9,479072
1448,000000	9,695994
1446,000000	9,918177
1444,000000	10,100465
1442,000000	10,008882
1440,000000	9,611321
1438,000000	9,199360
1436,000000	9,071554
1434,000000	9,240405
1432,000000	9,510477
1430,000000	9,719735
1428,000000	9,804596
1426,000000	9,710652
1424,000000	9,403808
1422,000000	8,992122
1420,000000	8,731712
1418,000000	8,825358
1416,000000	9,227743
1414,000000	9,682615
1412,000000	9,941457
1410,000000	9,937662
1408,000000	9,773852
1406,000000	9,579453
1404,000000	9,395144
1402,000000	9,184051
1400,000000	8,941717
1398,000000	8,765596
1396,000000	8,775444
1394,000000	8,967617
1392,000000	9,194615
1390,000000	9,322191
1388,000000	9,371547
1386,000000	9,458302
1384,000000	9,616912
1382,000000	9,742749
1380,000000	9,719005
1378,000000	9,556471
1376,000000	9,385088
1374,000000	9,331750
1372,000000	9,412309
1370,000000	9,523306
1368,000000	9,535336
1366,000000	9,415481
1364,000000	9,269082
1362,000000	9,241175
1360,000000	9,370933
1358,000000	9,564779
1356,000000	9,706444
1354,000000	9,762814
1352,000000	9,775019
1350,000000	9,780296
1348,000000	9,768913
1346,000000	9,700638
1344,000000	9,550973
1342,000000	9,356541
1340,000000	9,216949
1338,000000	9,223341
1336,000000	9,368126
1334,000000	9,545279
1332,000000	9,655655
1330,000000	9,686840
1328,000000	9,678793
1326,000000	9,648952
1324,000000	9,585328
1322,000000	9,493439
1320,000000	9,407001
1318,000000	9,353592
1316,000000	9,335298
1314,000000	9,342782
1312,000000	9,365607
1310,000000	9,388281
1308,000000	9,396199
1306,000000	9,388913
1304,000000	9,375151
1302,000000	9,356678
1300,000000	9,329744
1298,000000	9,297667
1296,000000	9,267351
1294,000000	9,235945
1292,000000	9,196080
1290,000000	9,152031
1288,000000	9,116725
1286,000000	9,092644
1284,000000	9,069164
1282,000000	9,038433
1280,000000	9,000817
1278,000000	8,954646
1276,000000	8,893623
1274,000000	8,818297
1272,000000	8,739032
1270,000000	8,663771
1268,000000	8,590507
1266,000000	8,515854
1264,000000	8,444918
1262,000000	8,389279
1260,000000	8,358491
1258,000000	8,353076
1256,000000	8,362054
1254,000000	8,367722
1252,000000	8,357235
1250,000000	8,330474
1248,000000	8,294728
1246,000000	8,254853
1244,000000	8,212411
1242,000000	8,169860
1240,000000	8,129066
1238,000000	8,087646
1236,000000	8,042238
1234,000000	7,993769
1232,000000	7,945079
1230,000000	7,895403
1228,000000	7,842474
1226,000000	7,787811
1224,000000	7,734523
1222,000000	7,681600
1220,000000	7,625352
1218,000000	7,565579
1216,000000	7,505596
1214,000000	7,447718
1212,000000	7,392736
1210,000000	7,342280
1208,000000	7,297018
1206,000000	7,253851
1204,000000	7,208977
1202,000000	7,162767
1200,000000	7,118064
1198,000000	7,075020
1196,000000	7,031418
1194,000000	6,986470
1192,000000	6,940693
1190,000000	6,893024
1188,000000	6,841649
1186,000000	6,786787
1184,000000	6,730138
1182,000000	6,672979
1180,000000	6,617118
1178,000000	6,565427
1176,000000	6,518404
1174,000000	6,471884
1172,000000	6,421183
1170,000000	6,365814
1168,000000	6,307794
1166,000000	6,248028
1164,000000	6,187353
1162,000000	6,128813
1160,000000	6,075151
1158,000000	6,025638
1156,000000	5,978080
1154,000000	5,932410
1152,000000	5,889355
1150,000000	5,847710
1148,000000	5,806127
1146,000000	5,765899
1144,000000	5,729058
1142,000000	5,694824
1140,000000	5,660737
1138,000000	5,625677
1136,000000	5,589333
1134,000000	5,550167
1132,000000	5,506804
1130,000000	5,460118
1128,000000	5,411651
1126,000000	5,361302
1124,000000	5,308660
1122,000000	5,255082
1120,000000	5,202122
1118,000000	5,149350
1116,000000	5,095997
1114,000000	5,043357
1112,000000	4,993414
1110,000000	4,946546
1108,000000	4,902563
1106,000000	4,862326
1104,000000	4,826222
1102,000000	4,792498
1100,000000	4,759123
1098,000000	4,726233
1096,000000	4,694775
1094,000000	4,664409
1092,000000	4,634533
1090,000000	4,605772
1088,000000	4,578601
1086,000000	4,551819
1084,000000	4,524469
1082,000000	4,497987
1080,000000	4,474714
1078,000000	4,455568
1076,000000	4,440501
1074,000000	4,429743
1072,000000	4,422873
1070,000000	4,417903
1068,000000	4,413235
1066,000000	4,409267
1064,000000	4,406663
1062,000000	4,403790
1060,000000	4,396697
1058,000000	4,380995
1056,000000	4,354753
1054,000000	4,322894
1052,000000	4,299752
1050,000000	4,302147
1048,000000	4,335960
1046,000000	4,390467
1044,000000	4,447390
1042,000000	4,494467
1040,000000	4,529468
1038,000000	4,555233
1036,000000	4,575270
1034,000000	4,592929
1032,000000	4,610529
1030,000000	4,628438
1028,000000	4,646298
1026,000000	4,664826
1024,000000	4,685108
1022,000000	4,707094
1020,000000	4,730408
1018,000000	4,755763
1016,000000	4,783929
1014,000000	4,814089
1012,000000	4,844724
1010,000000	4,875154
1008,000000	4,904757
1006,000000	4,931679
1004,000000	4,954052
1002,000000	4,971631
1000,000000	4,984963
998,000000	4,993817
996,000000	4,997754
994,000000	4,997587
992,000000	4,994391
990,000000	4,988059
988,000000	4,978120
986,000000	4,965136
984,000000	4,950237
982,000000	4,933649
980,000000	4,915179
978,000000	4,895370
976,000000	4,874894
974,000000	4,853559
972,000000	4,830915
970,000000	4,807258
968,000000	4,783030
966,000000	4,757911
964,000000	4,731660
962,000000	4,704998
960,000000	4,678670
958,000000	4,652384
956,000000	4,625673
954,000000	4,599083
952,000000	4,573438
950,000000	4,548694
948,000000	4,524437
946,000000	4,500800
944,000000	4,477854
942,000000	4,454876
940,000000	4,431235
938,000000	4,407372
936,000000	4,384027
934,000000	4,361110
932,000000	4,338162
930,000000	4,315232
928,000000	4,292445
926,000000	4,269347
924,000000	4,245471
922,000000	4,220899
920,000000	4,195510
918,000000	4,168445
916,000000	4,139157
914,000000	4,108453
912,000000	4,077816
910,000000	4,048257
908,000000	4,020326
906,000000	3,994463
904,000000	3,970524
902,000000	3,947620
900,000000	3,925179
898,000000	3,903533
896,000000	3,882826
894,000000	3,861962
892,000000	3,839324
890,000000	3,813872
888,000000	3,785027
886,000000	3,752244
884,000000	3,715894
882,000000	3,678355
880,000000	3,643658
878,000000	3,615877
876,000000	3,597882
874,000000	3,590605
872,000000	3,592275
870,000000	3,598921
868,000000	3,606203
866,000000	3,611149
864,000000	3,612388
862,000000	3,609503
860,000000	3,602851
858,000000	3,593473
856,000000	3,582532
854,000000	3,570874
852,000000	3,559386
850,000000	3,549055
848,000000	3,540189
846,000000	3,531920
844,000000	3,522869
842,000000	3,512092
840,000000	3,498687
838,000000	3,480869
836,000000	3,456076
834,000000	3,421975
832,000000	3,378067
830,000000	3,327496
828,000000	3,278464
826,000000	3,242561
824,000000	3,229234
822,000000	3,239319
820,000000	3,264079
818,000000	3,290885
816,000000	3,310265
814,000000	3,319044
812,000000	3,318442
810,000000	3,311071
808,000000	3,299415
806,000000	3,285704
804,000000	3,271810
802,000000	3,259368
800,000000	3,250001
798,000000	3,245248
796,000000	3,245874
794,000000	3,251420
792,000000	3,260402
790,000000	3,270876
788,000000	3,280990
786,000000	3,289456
784,000000	3,295921
782,000000	3,300607
780,000000	3,303601
778,000000	3,304742
776,000000	3,304223
774,000000	3,302558
772,000000	3,299888
770,000000	3,295933
768,000000	3,290716
766,000000	3,284770
764,000000	3,278274
762,000000	3,270826
760,000000	3,262411
758,000000	3,253688
756,000000	3,244966
754,000000	3,235628
752,000000	3,225114
750,000000	3,213657
748,000000	3,201537
746,000000	3,188633
744,000000	3,175318
742,000000	3,162775
740,000000	3,151567
738,000000	3,140614
736,000000	3,128474
734,000000	3,115051
732,000000	3,101252
730,000000	3,087233
728,000000	3,071074
726,000000	3,049493
724,000000	3,021350
722,000000	2,991882
720,000000	2,971153
718,000000	2,964608
716,000000	2,965627
714,000000	2,961360
712,000000	2,945904
710,000000	2,923426
708,000000	2,898646
706,000000	2,870554
704,000000	2,837354
702,000000	2,800455
700,000000	2,760228
698,000000	2,713040
696,000000	2,656890
694,000000	2,595251
692,000000	2,532124
690,000000	2,469743
688,000000	2,414069
686,000000	2,373861
684,000000	2,349303
682,000000	2,331868
680,000000	2,319660
678,000000	2,315182
676,000000	2,296053
674,000000	2,212807
672,000000	2,051852
670,000000	1,889852
668,000000	1,843858
666,000000	1,949647
664,000000	2,118351
662,000000	2,230552
660,000000	2,248099
658,000000	2,216216
656,000000	2,184217
654,000000	2,161637
652,000000	2,142881
650,000000	2,132830
648,000000	2,136977
646,000000	2,148430
644,000000	2,158092
642,000000	2,164727
640,000000	2,168622
638,000000	2,166494
636,000000	2,158588
634,000000	2,150640
632,000000	2,144011
630,000000	2,132659
628,000000	2,113849
626,000000	2,092169
624,000000	2,069515
622,000000	2,040877
620,000000	2,005381
618,000000	1,972600
616,000000	1,950662
614,000000	1,935375
612,000000	1,916958
610,000000	1,892137
608,000000	1,863891
606,000000	1,834797
604,000000	1,806777
602,000000	1,782958
600,000000	1,763727
598,000000	1,744007
596,000000	1,719455
594,000000	1,692526
592,000000	1,668323
590,000000	1,647089
588,000000	1,625091
586,000000	1,600133
584,000000	1,572384
582,000000	1,542172
580,000000	1,510893
578,000000	1,482004
576,000000	1,457468
574,000000	1,434759
572,000000	1,410418
570,000000	1,384945
568,000000	1,361127
566,000000	1,339485
564,000000	1,318224
562,000000	1,296361
560,000000	1,274100
558,000000	1,251220
556,000000	1,227480
554,000000	1,203670
552,000000	1,180472
550,000000	1,157673
548,000000	1,135979
546,000000	1,117659
544,000000	1,103353
542,000000	1,089983
540,000000	1,074382
538,000000	1,057211
536,000000	1,040844
534,000000	1,024517
532,000000	1,004760
530,000000	0,980420
528,000000	0,954601
526,000000	0,931009
524,000000	0,910078
522,000000	0,889857
520,000000	0,870016
518,000000	0,853563
516,000000	0,843753
514,000000	0,839328
512,000000	0,834220
510,000000	0,823020
508,000000	0,806043
506,000000	0,788123
504,000000	0,773518
502,000000	0,763319
500,000000	0,756173
498,000000	0,748980
496,000000	0,737865
494,000000	0,721201
492,000000	0,701362
490,000000	0,681505
488,000000	0,661662
486,000000	0,640695
484,000000	0,620397
482,000000	0,603407
480,000000	0,587652
478,000000	0,567634
476,000000	0,542360
474,000000	0,517939
472,000000	0,500919
470,000000	0,492188
468,000000	0,488083
466,000000	0,483871
464,000000	0,475114
462,000000	0,459945
460,000000	0,442522
458,000000	0,431195
456,000000	0,430267
454,000000	0,435696
452,000000	0,439924
450,000000	0,438697
448,000000	0,432185
446,000000	0,422591
444,000000	0,412974
442,000000	0,405849
440,000000	0,400780
438,000000	0,394872
436,000000	0,386846
434,000000	0,378255
432,000000	0,369879
430,000000	0,359438
428,000000	0,344067
426,000000	0,322855
424,000000	0,296633
422,000000	0,268800
420,000000	0,246881
418,000000	0,238270
416,000000	0,241818
414,000000	0,247062
412,000000	0,244648
410,000000	0,234577
408,000000	0,221573
406,000000	0,206623
404,000000	0,187234
402,000000	0,163686
400,000000	0,140665
398,000000	0,123227
396,000000	0,113711
394,000000	0,111032
392,000000	0,110651
390,000000	0,106880
388,000000	0,097908
386,000000	0,087306
384,000000	0,078880
382,000000	0,071917
380,000000	0,063765
378,000000	0,054577
376,000000	0,046718
374,000000	0,040993
372,000000	0,036586
370,000000	0,033209
368,000000	0,030731
366,000000	0,027903
364,000000	0,023802
362,000000	0,019439
360,000000	0,015980
358,000000	0,012822
356,000000	0,009284
354,000000	0,006290
352,000000	0,004967
350,000000	0,004346
348,000000	0,003185
346,000000	0,002221
344,000000	0,002600
342,000000	0,003146
340,000000	0,002651
338,000000	0,001493
336,000000	0,001159
334,000000	0,000698
332,000000	0,000501
330,000000	0,000886
328,000000	0,000548
326,000000	0,000440
324,000000	0,000984
322,000000	0,000974
320,000000	0,000172
318,000000	0,000776
316,000000	0,000553
314,000000	0,000498
312,000000	0,001632
310,000000	0,001432
308,000000	0,000413
306,000000	0,000404
304,000000	0,000609
302,000000	0,000571
300,000000	0,000783
298,000000	0,000689
296,000000	0,000252
294,000000	0,000448
292,000000	0,001412
290,000000	0,001394
288,000000	0,000647
286,000000	0,000787
284,000000	0,000509
282,000000	0,000919
280,000000	0,001277
278,000000	0,000860
276,000000	0,000204
274,000000	0,000299
272,000000	0,000898
270,000000	0,000812
268,000000	0,000086
266,000000	0,000598
264,000000	0,000197
262,000000	0,000701
260,000000	0,000776
258,000000	0,000750
256,000000	0,000465
254,000000	0,000323
252,000000	0,001021
250,000000	0,000913
248,000000	0,000252
246,000000	0,000652
244,000000	0,001014
242,000000	0,000469
240,000000	0,000472
238,000000	0,000696
236,000000	0,000363
234,000000	0,001075
232,000000	0,001840
230,000000	0,001634
228,000000	0,000678
226,000000	0,000804
224,000000	0,000719
222,000000	0,000389
220,000000	0,000883
218,000000	0,000380
216,000000	0,000549
214,000000	0,000994
212,000000	0,000686
210,000000	0,000158
208,000000	0,000610
206,000000	0,000634
204,000000	0,000506
202,000000	0,000477
200,000000	0,000611
