PE IR       SUBTECH     SPECTRUM    ASCII       PEDS        4.00        
   -1
silicon.ASC
25/06/17
10:27:33.00
25/06/17
10:27:33.00
Praktikum
Sample 021 By Praktikum date Dienstag, Juni 17 2025
300,000000
#HDR
-1
-1
#GR
cm-1
EGY
1.0
0.0
4000,000000
-1,000000
3701
8
0,964249
0,000419
#DATA
4000,000000	0,685162
3999,000000	0,684681
3998,000000	0,684616
3997,000000	0,685174
3996,000000	0,686066
3995,000000	0,686761
3994,000000	0,686867
3993,000000	0,686363
3992,000000	0,685627
3991,000000	0,685272
3990,000000	0,685780
3989,000000	0,687045
3988,000000	0,688339
3987,000000	0,688877
3986,000000	0,688451
3985,000000	0,687529
3984,000000	0,686785
3983,000000	0,686668
3982,000000	0,687295
3981,000000	0,688416
3980,000000	0,689423
3979,000000	0,689715
3978,000000	0,689272
3977,000000	0,688643
3976,000000	0,688243
3975,000000	0,687908
3974,000000	0,687325
3973,000000	0,686720
3972,000000	0,686753
3971,000000	0,687720
3970,000000	0,689178
3969,000000	0,690412
3968,000000	0,691117
3967,000000	0,691556
3966,000000	0,692141
3965,000000	0,692924
3964,000000	0,693428
3963,000000	0,693144
3962,000000	0,692285
3961,000000	0,691837
3960,000000	0,692503
3959,000000	0,693741
3958,000000	0,694287
3957,000000	0,693732
3956,000000	0,693100
3955,000000	0,693552
3954,000000	0,694779
3953,000000	0,695147
3952,000000	0,693349
3951,000000	0,689592
3950,000000	0,685303
3949,000000	0,682120
3948,000000	0,681179
3947,000000	0,682616
3946,000000	0,684994
3945,000000	0,685592
3944,000000	0,682607
3943,000000	0,677650
3942,000000	0,675229
3941,000000	0,678782
3940,000000	0,687014
3939,000000	0,695138
3938,000000	0,699641
3937,000000	0,700637
3936,000000	0,699400
3935,000000	0,695373
3934,000000	0,687197
3933,000000	0,676294
3932,000000	0,667525
3931,000000	0,665676
3930,000000	0,671462
3929,000000	0,681018
3928,000000	0,688639
3927,000000	0,690281
3926,000000	0,686180
3925,000000	0,680809
3924,000000	0,679189
3923,000000	0,682195
3922,000000	0,685744
3921,000000	0,685013
3920,000000	0,679076
3919,000000	0,671007
3918,000000	0,664775
3917,000000	0,663218
3916,000000	0,668070
3915,000000	0,679267
3914,000000	0,693400
3913,000000	0,704942
3912,000000	0,710270
3911,000000	0,710385
3910,000000	0,708639
3909,000000	0,706309
3908,000000	0,701050
3907,000000	0,689224
3906,000000	0,669290
3905,000000	0,643948
3904,000000	0,619820
3903,000000	0,604115
3902,000000	0,599684
3901,000000	0,603686
3900,000000	0,612251
3899,000000	0,625316
3898,000000	0,645031
3897,000000	0,669657
3896,000000	0,691609
3895,000000	0,702561
3894,000000	0,698751
3893,000000	0,682330
3892,000000	0,661111
3891,000000	0,647316
3890,000000	0,650499
3889,000000	0,666501
3888,000000	0,676769
3887,000000	0,666020
3886,000000	0,640414
3885,000000	0,622965
3884,000000	0,628357
3883,000000	0,647227
3882,000000	0,658464
3881,000000	0,653458
3880,000000	0,644125
3879,000000	0,647817
3878,000000	0,667477
3877,000000	0,688671
3876,000000	0,694578
3875,000000	0,682933
3874,000000	0,666267
3873,000000	0,655280
3872,000000	0,646252
3871,000000	0,629573
3870,000000	0,608500
3869,000000	0,600322
3868,000000	0,614883
3867,000000	0,639170
3866,000000	0,651140
3865,000000	0,644690
3864,000000	0,634192
3863,000000	0,635164
3862,000000	0,648675
3861,000000	0,666169
3860,000000	0,681303
3859,000000	0,691763
3858,000000	0,692930
3857,000000	0,675632
3856,000000	0,632963
3855,000000	0,569928
3854,000000	0,507806
3853,000000	0,476104
3852,000000	0,493377
3851,000000	0,551642
3850,000000	0,621650
3849,000000	0,675631
3848,000000	0,704368
3847,000000	0,713682
3846,000000	0,711246
3845,000000	0,700885
3844,000000	0,686196
3843,000000	0,672048
3842,000000	0,660304
3841,000000	0,647350
3840,000000	0,628553
3839,000000	0,604940
3838,000000	0,585285
3837,000000	0,580494
3836,000000	0,594793
3835,000000	0,620842
3834,000000	0,645040
3833,000000	0,658663
3832,000000	0,664159
3831,000000	0,670050
3830,000000	0,680665
3829,000000	0,692232
3828,000000	0,698162
3827,000000	0,697105
3826,000000	0,693998
3825,000000	0,692234
3824,000000	0,685664
3823,000000	0,663317
3822,000000	0,626247
3821,000000	0,595313
3820,000000	0,593603
3819,000000	0,618828
3818,000000	0,641844
3817,000000	0,639149
3816,000000	0,620586
3815,000000	0,617803
3814,000000	0,646882
3813,000000	0,692327
3812,000000	0,727319
3811,000000	0,739386
3810,000000	0,732021
3809,000000	0,710659
3808,000000	0,679879
3807,000000	0,651729
3806,000000	0,643080
3805,000000	0,656606
3804,000000	0,670927
3803,000000	0,660779
3802,000000	0,627317
3801,000000	0,600704
3800,000000	0,607557
3799,000000	0,642100
3798,000000	0,675130
3797,000000	0,687612
3796,000000	0,687699
3795,000000	0,693812
3794,000000	0,711350
3793,000000	0,730421
3792,000000	0,741115
3791,000000	0,743278
3790,000000	0,742352
3789,000000	0,741851
3788,000000	0,741433
3787,000000	0,739283
3786,000000	0,734687
3785,000000	0,729553
3784,000000	0,727295
3783,000000	0,728672
3782,000000	0,729102
3781,000000	0,722845
3780,000000	0,710661
3779,000000	0,701353
3778,000000	0,703783
3777,000000	0,717863
3776,000000	0,734879
3775,000000	0,746234
3774,000000	0,749634
3773,000000	0,746054
3772,000000	0,734362
3771,000000	0,713804
3770,000000	0,691488
3769,000000	0,680361
3768,000000	0,685583
3767,000000	0,697473
3766,000000	0,703811
3765,000000	0,705426
3764,000000	0,712018
3763,000000	0,724258
3762,000000	0,729729
3761,000000	0,719569
3760,000000	0,700673
3759,000000	0,687364
3758,000000	0,686522
3757,000000	0,694590
3756,000000	0,702740
3755,000000	0,699886
3754,000000	0,676716
3753,000000	0,634296
3752,000000	0,587306
3751,000000	0,553993
3750,000000	0,544470
3749,000000	0,558496
3748,000000	0,585884
3747,000000	0,605619
3746,000000	0,596339
3745,000000	0,560933
3744,000000	0,533801
3743,000000	0,550117
3742,000000	0,606680
3741,000000	0,665304
3740,000000	0,692898
3739,000000	0,686199
3738,000000	0,659309
3737,000000	0,624400
3736,000000	0,591797
3735,000000	0,573830
3734,000000	0,576094
3733,000000	0,590997
3732,000000	0,609333
3731,000000	0,632068
3730,000000	0,661888
3729,000000	0,689172
3728,000000	0,698674
3727,000000	0,689114
3726,000000	0,675755
3725,000000	0,671993
3724,000000	0,676517
3723,000000	0,681171
3722,000000	0,683853
3721,000000	0,688883
3720,000000	0,698609
3719,000000	0,710506
3718,000000	0,721650
3717,000000	0,731371
3716,000000	0,737639
3715,000000	0,733680
3714,000000	0,712453
3713,000000	0,676421
3712,000000	0,640749
3711,000000	0,623070
3710,000000	0,629836
3709,000000	0,653525
3708,000000	0,682093
3707,000000	0,707710
3706,000000	0,726179
3705,000000	0,733702
3704,000000	0,728350
3703,000000	0,713886
3702,000000	0,699644
3701,000000	0,695370
3700,000000	0,704962
3699,000000	0,723169
3698,000000	0,739046
3697,000000	0,745329
3696,000000	0,744154
3695,000000	0,741385
3694,000000	0,736740
3693,000000	0,723873
3692,000000	0,699591
3691,000000	0,668402
3690,000000	0,638225
3689,000000	0,617763
3688,000000	0,617374
3687,000000	0,643738
3686,000000	0,688960
3685,000000	0,731985
3684,000000	0,756305
3683,000000	0,762192
3682,000000	0,758999
3681,000000	0,751714
3680,000000	0,740084
3679,000000	0,723089
3678,000000	0,697237
3677,000000	0,657916
3676,000000	0,612683
3675,000000	0,586593
3674,000000	0,599309
3673,000000	0,637151
3672,000000	0,661903
3671,000000	0,653308
3670,000000	0,631487
3669,000000	0,631412
3668,000000	0,664300
3667,000000	0,711476
3666,000000	0,749265
3665,000000	0,769371
3664,000000	0,776404
3663,000000	0,777140
3662,000000	0,775931
3661,000000	0,775081
3660,000000	0,773753
3659,000000	0,766713
3658,000000	0,748757
3657,000000	0,722915
3656,000000	0,702772
3655,000000	0,701632
3654,000000	0,716070
3653,000000	0,723854
3652,000000	0,703523
3651,000000	0,656975
3650,000000	0,608898
3649,000000	0,584178
3648,000000	0,590371
3647,000000	0,620597
3646,000000	0,664220
3645,000000	0,709986
3644,000000	0,745952
3643,000000	0,765007
3642,000000	0,770480
3641,000000	0,771106
3640,000000	0,771179
3639,000000	0,769633
3638,000000	0,766298
3637,000000	0,763068
3636,000000	0,759304
3635,000000	0,752474
3634,000000	0,743734
3633,000000	0,735997
3632,000000	0,724220
3631,000000	0,696090
3630,000000	0,649955
3629,000000	0,607247
3628,000000	0,597611
3627,000000	0,630061
3626,000000	0,683859
3625,000000	0,729560
3624,000000	0,752647
3623,000000	0,755410
3622,000000	0,743725
3621,000000	0,720971
3620,000000	0,693811
3619,000000	0,675341
3618,000000	0,676252
3617,000000	0,694341
3616,000000	0,715282
3615,000000	0,725112
3614,000000	0,721409
3613,000000	0,712779
3612,000000	0,708135
3611,000000	0,707394
3610,000000	0,704130
3609,000000	0,696512
3608,000000	0,692267
3607,000000	0,700729
3606,000000	0,721561
3605,000000	0,744393
3604,000000	0,758708
3603,000000	0,761495
3602,000000	0,756159
3601,000000	0,748246
3600,000000	0,742838
3599,000000	0,742394
3598,000000	0,744533
3597,000000	0,744006
3596,000000	0,738806
3595,000000	0,733253
3594,000000	0,733521
3593,000000	0,741016
3592,000000	0,750686
3591,000000	0,754040
3590,000000	0,744196
3589,000000	0,721563
3588,000000	0,697001
3587,000000	0,686140
3586,000000	0,697017
3585,000000	0,723093
3584,000000	0,750061
3583,000000	0,768113
3582,000000	0,776615
3581,000000	0,779450
3580,000000	0,780018
3579,000000	0,780250
3578,000000	0,780913
3577,000000	0,781469
3576,000000	0,781119
3575,000000	0,780228
3574,000000	0,779868
3573,000000	0,780180
3572,000000	0,779774
3571,000000	0,775939
3570,000000	0,765019
3569,000000	0,745155
3568,000000	0,721018
3567,000000	0,704048
3566,000000	0,704123
3565,000000	0,720591
3564,000000	0,743085
3563,000000	0,761161
3562,000000	0,771318
3561,000000	0,775752
3560,000000	0,777888
3559,000000	0,780161
3558,000000	0,783533
3557,000000	0,787069
3556,000000	0,788688
3555,000000	0,786992
3554,000000	0,782389
3553,000000	0,776911
3552,000000	0,773614
3551,000000	0,774810
3550,000000	0,779133
3549,000000	0,781056
3548,000000	0,775873
3547,000000	0,765409
3546,000000	0,756983
3545,000000	0,756387
3544,000000	0,763462
3543,000000	0,774116
3542,000000	0,784282
3541,000000	0,791316
3540,000000	0,793880
3539,000000	0,792369
3538,000000	0,788922
3537,000000	0,786123
3536,000000	0,785617
3535,000000	0,787600
3534,000000	0,790619
3533,000000	0,792205
3532,000000	0,790841
3531,000000	0,787357
3530,000000	0,783531
3529,000000	0,779935
3528,000000	0,776385
3527,000000	0,773709
3526,000000	0,773028
3525,000000	0,773669
3524,000000	0,774014
3523,000000	0,774422
3522,000000	0,777005
3521,000000	0,782057
3520,000000	0,787058
3519,000000	0,790048
3518,000000	0,791860
3517,000000	0,793798
3516,000000	0,795266
3515,000000	0,795230
3514,000000	0,794262
3513,000000	0,793231
3512,000000	0,791218
3511,000000	0,786978
3510,000000	0,782084
3509,000000	0,780414
3508,000000	0,783849
3507,000000	0,789590
3506,000000	0,792465
3505,000000	0,789590
3504,000000	0,782805
3503,000000	0,776891
3502,000000	0,775661
3501,000000	0,779246
3500,000000	0,784727
3499,000000	0,788831
3498,000000	0,790130
3497,000000	0,789380
3496,000000	0,788498
3495,000000	0,789032
3494,000000	0,790929
3493,000000	0,792788
3492,000000	0,793542
3491,000000	0,793478
3490,000000	0,793206
3489,000000	0,792439
3488,000000	0,790791
3487,000000	0,789124
3486,000000	0,788672
3485,000000	0,788994
3484,000000	0,788192
3483,000000	0,785547
3482,000000	0,782818
3481,000000	0,782450
3480,000000	0,785198
3479,000000	0,789683
3478,000000	0,793613
3477,000000	0,795321
3476,000000	0,794865
3475,000000	0,793816
3474,000000	0,793480
3473,000000	0,793488
3472,000000	0,792748
3471,000000	0,791368
3470,000000	0,790546
3469,000000	0,790754
3468,000000	0,791232
3467,000000	0,791342
3466,000000	0,791265
3465,000000	0,791164
3464,000000	0,790813
3463,000000	0,790442
3462,000000	0,790950
3461,000000	0,792719
3460,000000	0,794828
3459,000000	0,795900
3458,000000	0,795377
3457,000000	0,793898
3456,000000	0,792860
3455,000000	0,793453
3454,000000	0,795567
3453,000000	0,797756
3452,000000	0,798696
3451,000000	0,798193
3450,000000	0,796311
3449,000000	0,792687
3448,000000	0,788032
3447,000000	0,785256
3446,000000	0,786874
3445,000000	0,791506
3444,000000	0,795027
3443,000000	0,795411
3442,000000	0,794532
3441,000000	0,794812
3440,000000	0,796299
3439,000000	0,797909
3438,000000	0,799539
3437,000000	0,801480
3436,000000	0,803115
3435,000000	0,803731
3434,000000	0,803797
3433,000000	0,804190
3432,000000	0,804813
3431,000000	0,805023
3430,000000	0,804774
3429,000000	0,804413
3428,000000	0,803991
3427,000000	0,803737
3426,000000	0,804485
3425,000000	0,806488
3424,000000	0,808245
3423,000000	0,807781
3422,000000	0,805011
3421,000000	0,802014
3420,000000	0,800987
3419,000000	0,802506
3418,000000	0,805568
3417,000000	0,808555
3416,000000	0,810184
3415,000000	0,810299
3414,000000	0,809965
3413,000000	0,810438
3412,000000	0,811925
3411,000000	0,813562
3410,000000	0,814495
3409,000000	0,814661
3408,000000	0,814537
3407,000000	0,814474
3406,000000	0,814429
3405,000000	0,814213
3404,000000	0,813802
3403,000000	0,813370
3402,000000	0,813084
3401,000000	0,813079
3400,000000	0,813599
3399,000000	0,814805
3398,000000	0,816319
3397,000000	0,817287
3396,000000	0,817224
3395,000000	0,816501
3394,000000	0,815754
3393,000000	0,815259
3392,000000	0,815247
3391,000000	0,816229
3390,000000	0,818267
3389,000000	0,820314
3388,000000	0,821150
3387,000000	0,820831
3386,000000	0,820503
3385,000000	0,820925
3384,000000	0,821888
3383,000000	0,822954
3382,000000	0,823928
3381,000000	0,824621
3380,000000	0,824915
3379,000000	0,825060
3378,000000	0,825324
3377,000000	0,825472
3376,000000	0,825279
3375,000000	0,825253
3374,000000	0,825915
3373,000000	0,826529
3372,000000	0,825694
3371,000000	0,823387
3370,000000	0,821332
3369,000000	0,821003
3368,000000	0,822152
3367,000000	0,823621
3366,000000	0,824736
3365,000000	0,825424
3364,000000	0,825778
3363,000000	0,826128
3362,000000	0,827007
3361,000000	0,828467
3360,000000	0,829716
3359,000000	0,829892
3358,000000	0,829052
3357,000000	0,828160
3356,000000	0,828155
3355,000000	0,829080
3354,000000	0,830045
3353,000000	0,830145
3352,000000	0,829552
3351,000000	0,829417
3350,000000	0,830498
3349,000000	0,832335
3348,000000	0,834062
3347,000000	0,835367
3346,000000	0,836094
3345,000000	0,835772
3344,000000	0,834483
3343,000000	0,833533
3342,000000	0,834031
3341,000000	0,835247
3340,000000	0,835668
3339,000000	0,835258
3338,000000	0,835253
3337,000000	0,835887
3336,000000	0,835976
3335,000000	0,834947
3334,000000	0,833748
3333,000000	0,833369
3332,000000	0,833824
3331,000000	0,834997
3330,000000	0,837065
3329,000000	0,839499
3328,000000	0,840940
3327,000000	0,840894
3326,000000	0,840495
3325,000000	0,840790
3324,000000	0,841266
3323,000000	0,840912
3322,000000	0,839865
3321,000000	0,839117
3320,000000	0,839209
3319,000000	0,839936
3318,000000	0,840837
3317,000000	0,841296
3316,000000	0,840733
3315,000000	0,839320
3314,000000	0,838077
3313,000000	0,837776
3312,000000	0,838168
3311,000000	0,838584
3310,000000	0,838694
3309,000000	0,838363
3308,000000	0,837613
3307,000000	0,837163
3306,000000	0,838127
3305,000000	0,840573
3304,000000	0,843096
3303,000000	0,844485
3302,000000	0,844968
3301,000000	0,845133
3300,000000	0,844601
3299,000000	0,842881
3298,000000	0,840913
3297,000000	0,840354
3296,000000	0,841431
3295,000000	0,842633
3294,000000	0,842650
3293,000000	0,841766
3292,000000	0,841149
3291,000000	0,841489
3290,000000	0,842679
3289,000000	0,844320
3288,000000	0,846046
3287,000000	0,847518
3286,000000	0,848374
3285,000000	0,848300
3284,000000	0,847287
3283,000000	0,845869
3282,000000	0,844925
3281,000000	0,845006
3280,000000	0,845811
3279,000000	0,846480
3278,000000	0,846447
3277,000000	0,845975
3276,000000	0,845806
3275,000000	0,846229
3274,000000	0,846629
3273,000000	0,846279
3272,000000	0,845554
3271,000000	0,845737
3270,000000	0,847392
3269,000000	0,849479
3268,000000	0,850633
3267,000000	0,850806
3266,000000	0,850872
3265,000000	0,851121
3264,000000	0,851099
3263,000000	0,850739
3262,000000	0,850587
3261,000000	0,850828
3260,000000	0,851052
3259,000000	0,851153
3258,000000	0,851586
3257,000000	0,852459
3256,000000	0,853196
3255,000000	0,853403
3254,000000	0,853374
3253,000000	0,853485
3252,000000	0,853762
3251,000000	0,854289
3250,000000	0,855246
3249,000000	0,856263
3248,000000	0,856453
3247,000000	0,855513
3246,000000	0,854154
3245,000000	0,853204
3244,000000	0,852906
3243,000000	0,853303
3242,000000	0,854443
3241,000000	0,855771
3240,000000	0,856170
3239,000000	0,855272
3238,000000	0,854108
3237,000000	0,853871
3236,000000	0,854620
3235,000000	0,855707
3234,000000	0,856884
3233,000000	0,858199
3232,000000	0,859249
3231,000000	0,859414
3230,000000	0,858762
3229,000000	0,858093
3228,000000	0,858056
3227,000000	0,858607
3226,000000	0,859286
3225,000000	0,859758
3224,000000	0,860062
3223,000000	0,860512
3222,000000	0,861287
3221,000000	0,862166
3220,000000	0,862826
3219,000000	0,863246
3218,000000	0,863493
3217,000000	0,863248
3216,000000	0,862182
3215,000000	0,860766
3214,000000	0,860025
3213,000000	0,860305
3212,000000	0,860966
3211,000000	0,861436
3210,000000	0,861879
3209,000000	0,862460
3208,000000	0,862745
3207,000000	0,862370
3206,000000	0,861792
3205,000000	0,861757
3204,000000	0,862396
3203,000000	0,863242
3202,000000	0,863796
3201,000000	0,863637
3200,000000	0,862459
3199,000000	0,860602
3198,000000	0,859253
3197,000000	0,859548
3196,000000	0,861474
3195,000000	0,863985
3194,000000	0,866068
3193,000000	0,867358
3192,000000	0,867937
3191,000000	0,867948
3190,000000	0,867526
3189,000000	0,866854
3188,000000	0,866164
3187,000000	0,865655
3186,000000	0,865383
3185,000000	0,865319
3184,000000	0,865583
3183,000000	0,866452
3182,000000	0,867914
3181,000000	0,869390
3180,000000	0,870222
3179,000000	0,870307
3178,000000	0,870048
3177,000000	0,869852
3176,000000	0,869980
3175,000000	0,870548
3174,000000	0,871240
3173,000000	0,871415
3172,000000	0,871054
3171,000000	0,871196
3170,000000	0,872646
3169,000000	0,874588
3168,000000	0,875418
3167,000000	0,874797
3166,000000	0,873871
3165,000000	0,873555
3164,000000	0,873658
3163,000000	0,873742
3162,000000	0,873638
3161,000000	0,872953
3160,000000	0,871307
3159,000000	0,869489
3158,000000	0,869165
3157,000000	0,870763
3156,000000	0,872647
3155,000000	0,873211
3154,000000	0,872851
3153,000000	0,873088
3152,000000	0,874448
3151,000000	0,876219
3150,000000	0,877677
3149,000000	0,878568
3148,000000	0,878717
3147,000000	0,878167
3146,000000	0,877620
3145,000000	0,877928
3144,000000	0,879036
3143,000000	0,879960
3142,000000	0,879914
3141,000000	0,879149
3140,000000	0,878616
3139,000000	0,879005
3138,000000	0,880081
3137,000000	0,880911
3136,000000	0,880776
3135,000000	0,879797
3134,000000	0,878521
3133,000000	0,877296
3132,000000	0,876515
3131,000000	0,877004
3130,000000	0,879152
3129,000000	0,881803
3128,000000	0,883224
3127,000000	0,883347
3126,000000	0,883753
3125,000000	0,885037
3124,000000	0,885614
3123,000000	0,884064
3122,000000	0,881444
3121,000000	0,879967
3120,000000	0,880202
3119,000000	0,880971
3118,000000	0,881497
3117,000000	0,882139
3116,000000	0,883119
3115,000000	0,883879
3114,000000	0,884077
3113,000000	0,884203
3112,000000	0,884768
3111,000000	0,885499
3110,000000	0,885721
3109,000000	0,885155
3108,000000	0,884129
3107,000000	0,883294
3106,000000	0,883221
3105,000000	0,883994
3104,000000	0,885092
3103,000000	0,885859
3102,000000	0,886022
3101,000000	0,885660
3100,000000	0,884975
3099,000000	0,884403
3098,000000	0,884609
3097,000000	0,885888
3096,000000	0,887724
3095,000000	0,889334
3094,000000	0,890481
3093,000000	0,891349
3092,000000	0,891835
3091,000000	0,891567
3090,000000	0,890548
3089,000000	0,889299
3088,000000	0,888341
3087,000000	0,887911
3086,000000	0,888062
3085,000000	0,888556
3084,000000	0,888718
3083,000000	0,888001
3082,000000	0,886830
3081,000000	0,886355
3080,000000	0,887184
3079,000000	0,888748
3078,000000	0,890133
3077,000000	0,891140
3076,000000	0,892183
3075,000000	0,893447
3074,000000	0,894586
3073,000000	0,895216
3072,000000	0,895316
3071,000000	0,895058
3070,000000	0,894437
3069,000000	0,893307
3068,000000	0,891751
3067,000000	0,890306
3066,000000	0,889692
3065,000000	0,890266
3064,000000	0,891668
3063,000000	0,893044
3062,000000	0,893685
3061,000000	0,893543
3060,000000	0,893072
3059,000000	0,892599
3058,000000	0,891990
3057,000000	0,891124
3056,000000	0,890481
3055,000000	0,890798
3054,000000	0,892094
3053,000000	0,893506
3052,000000	0,894336
3051,000000	0,894834
3050,000000	0,895535
3049,000000	0,896228
3048,000000	0,896210
3047,000000	0,895443
3046,000000	0,894744
3045,000000	0,894701
3044,000000	0,894995
3043,000000	0,895108
3042,000000	0,895238
3041,000000	0,896015
3040,000000	0,897411
3039,000000	0,898425
3038,000000	0,898150
3037,000000	0,896949
3036,000000	0,896194
3035,000000	0,896630
3034,000000	0,897343
3033,000000	0,896831
3032,000000	0,895010
3031,000000	0,893520
3030,000000	0,893805
3029,000000	0,895462
3028,000000	0,896876
3027,000000	0,896996
3026,000000	0,895971
3025,000000	0,894529
3024,000000	0,893414
3023,000000	0,893185
3022,000000	0,893792
3021,000000	0,894364
3020,000000	0,893919
3019,000000	0,892319
3018,000000	0,890248
3017,000000	0,888474
3016,000000	0,887619
3015,000000	0,888225
3014,000000	0,890345
3013,000000	0,893164
3012,000000	0,895716
3011,000000	0,897904
3010,000000	0,900162
3009,000000	0,902207
3008,000000	0,902980
3007,000000	0,902030
3006,000000	0,900352
3005,000000	0,899553
3004,000000	0,900514
3003,000000	0,902792
3002,000000	0,904932
3001,000000	0,905447
3000,000000	0,904157
2999,000000	0,902549
2998,000000	0,902286
2997,000000	0,903412
2996,000000	0,904532
2995,000000	0,904636
2994,000000	0,903959
2993,000000	0,903155
2992,000000	0,902589
2991,000000	0,902605
2990,000000	0,903530
2989,000000	0,905011
2988,000000	0,906064
2987,000000	0,906235
2986,000000	0,906074
2985,000000	0,906117
2984,000000	0,906054
2983,000000	0,905385
2982,000000	0,904302
2981,000000	0,903315
2980,000000	0,902462
2979,000000	0,901456
2978,000000	0,900331
2977,000000	0,899364
2976,000000	0,898522
2975,000000	0,897480
2974,000000	0,896194
2973,000000	0,895109
2972,000000	0,894649
2971,000000	0,894614
2970,000000	0,894192
2969,000000	0,892600
2968,000000	0,889809
2967,000000	0,886577
2966,000000	0,883787
2965,000000	0,881903
2964,000000	0,881027
2963,000000	0,880979
2962,000000	0,881058
2961,000000	0,880315
2960,000000	0,878662
2959,000000	0,877347
2958,000000	0,877589
2957,000000	0,878992
2956,000000	0,880050
2955,000000	0,880060
2954,000000	0,879701
2953,000000	0,879735
2952,000000	0,879967
2951,000000	0,879701
2950,000000	0,878585
2949,000000	0,876805
2948,000000	0,874947
2947,000000	0,873732
2946,000000	0,873412
2945,000000	0,873415
2944,000000	0,872997
2943,000000	0,872063
2942,000000	0,870801
2941,000000	0,868841
2940,000000	0,865744
2939,000000	0,862181
2938,000000	0,859606
2937,000000	0,858596
2936,000000	0,858462
2935,000000	0,858566
2934,000000	0,858959
2933,000000	0,859366
2932,000000	0,858681
2931,000000	0,856172
2930,000000	0,852558
2929,000000	0,849317
2928,000000	0,847409
2927,000000	0,846983
2926,000000	0,847707
2925,000000	0,848913
2924,000000	0,849977
2923,000000	0,851003
2922,000000	0,852758
2921,000000	0,855649
2920,000000	0,859228
2919,000000	0,862890
2918,000000	0,866437
2917,000000	0,869684
2916,000000	0,872208
2915,000000	0,873970
2914,000000	0,875646
2913,000000	0,877867
2912,000000	0,880513
2911,000000	0,883077
2910,000000	0,885331
2909,000000	0,887327
2908,000000	0,889161
2907,000000	0,891010
2906,000000	0,892989
2905,000000	0,894766
2904,000000	0,895793
2903,000000	0,896115
2902,000000	0,896435
2901,000000	0,897170
2900,000000	0,898033
2899,000000	0,898791
2898,000000	0,899767
2897,000000	0,901123
2896,000000	0,902290
2895,000000	0,902668
2894,000000	0,902521
2893,000000	0,902688
2892,000000	0,903659
2891,000000	0,905287
2890,000000	0,907088
2889,000000	0,908478
2888,000000	0,909046
2887,000000	0,908935
2886,000000	0,908782
2885,000000	0,909053
2884,000000	0,909625
2883,000000	0,910064
2882,000000	0,910007
2881,000000	0,909241
2880,000000	0,907851
2879,000000	0,906478
2878,000000	0,905971
2877,000000	0,906545
2876,000000	0,907539
2875,000000	0,908113
2874,000000	0,907911
2873,000000	0,907051
2872,000000	0,905862
2871,000000	0,904623
2870,000000	0,903242
2869,000000	0,901257
2868,000000	0,898498
2867,000000	0,895548
2866,000000	0,893031
2865,000000	0,890685
2864,000000	0,887829
2863,000000	0,884579
2862,000000	0,881867
2861,000000	0,880424
2860,000000	0,880451
2859,000000	0,882002
2858,000000	0,884693
2857,000000	0,887200
2856,000000	0,888212
2855,000000	0,888032
2854,000000	0,888253
2853,000000	0,889732
2852,000000	0,891919
2851,000000	0,894199
2850,000000	0,896687
2849,000000	0,899441
2848,000000	0,902116
2847,000000	0,904792
2846,000000	0,907948
2845,000000	0,911220
2844,000000	0,913430
2843,000000	0,914394
2842,000000	0,915410
2841,000000	0,917207
2840,000000	0,918742
2839,000000	0,919048
2838,000000	0,919185
2837,000000	0,921050
2836,000000	0,924856
2835,000000	0,928906
2834,000000	0,931397
2833,000000	0,931667
2832,000000	0,930217
2831,000000	0,928464
2830,000000	0,928001
2829,000000	0,929223
2828,000000	0,930874
2827,000000	0,931532
2826,000000	0,931095
2825,000000	0,930365
2824,000000	0,929909
2823,000000	0,930080
2822,000000	0,931361
2821,000000	0,933653
2820,000000	0,935688
2819,000000	0,936179
2818,000000	0,935341
2817,000000	0,934413
2816,000000	0,934011
2815,000000	0,933810
2814,000000	0,933641
2813,000000	0,933906
2812,000000	0,934808
2811,000000	0,935905
2810,000000	0,936619
2809,000000	0,936798
2808,000000	0,936724
2807,000000	0,936818
2806,000000	0,937241
2805,000000	0,937612
2804,000000	0,937435
2803,000000	0,936904
2802,000000	0,936746
2801,000000	0,937011
2800,000000	0,936821
2799,000000	0,935881
2798,000000	0,935414
2797,000000	0,936697
2796,000000	0,939138
2795,000000	0,940849
2794,000000	0,940895
2793,000000	0,940021
2792,000000	0,939284
2791,000000	0,938932
2790,000000	0,938802
2789,000000	0,938966
2788,000000	0,939493
2787,000000	0,940087
2786,000000	0,940404
2785,000000	0,940549
2784,000000	0,940920
2783,000000	0,941656
2782,000000	0,942501
2781,000000	0,943250
2780,000000	0,944025
2779,000000	0,944891
2778,000000	0,945356
2777,000000	0,944777
2776,000000	0,943404
2775,000000	0,942460
2774,000000	0,942760
2773,000000	0,943721
2772,000000	0,944300
2771,000000	0,944404
2770,000000	0,944611
2769,000000	0,944972
2768,000000	0,945139
2767,000000	0,945337
2766,000000	0,945960
2765,000000	0,946350
2764,000000	0,945396
2763,000000	0,943542
2762,000000	0,942629
2761,000000	0,943275
2760,000000	0,943936
2759,000000	0,943396
2758,000000	0,942759
2757,000000	0,943796
2756,000000	0,946346
2755,000000	0,948635
2754,000000	0,949459
2753,000000	0,948957
2752,000000	0,947797
2751,000000	0,946737
2750,000000	0,946562
2749,000000	0,947358
2748,000000	0,948111
2747,000000	0,947851
2746,000000	0,946920
2745,000000	0,946363
2744,000000	0,946497
2743,000000	0,946979
2742,000000	0,947829
2741,000000	0,949266
2740,000000	0,950697
2739,000000	0,950991
2738,000000	0,949916
2737,000000	0,948544
2736,000000	0,948001
2735,000000	0,948381
2734,000000	0,948988
2733,000000	0,949196
2732,000000	0,948972
2731,000000	0,948869
2730,000000	0,949547
2729,000000	0,951048
2728,000000	0,952610
2727,000000	0,953348
2726,000000	0,952959
2725,000000	0,951727
2724,000000	0,950210
2723,000000	0,949070
2722,000000	0,948696
2721,000000	0,948772
2720,000000	0,948713
2719,000000	0,948694
2718,000000	0,949525
2717,000000	0,951219
2716,000000	0,952571
2715,000000	0,952765
2714,000000	0,952530
2713,000000	0,952890
2712,000000	0,953489
2711,000000	0,953225
2710,000000	0,952054
2709,000000	0,951037
2708,000000	0,950851
2707,000000	0,951246
2706,000000	0,951845
2705,000000	0,952468
2704,000000	0,952654
2703,000000	0,951866
2702,000000	0,950424
2701,000000	0,949471
2700,000000	0,949708
2699,000000	0,950755
2698,000000	0,951979
2697,000000	0,953323
2696,000000	0,954922
2695,000000	0,956363
2694,000000	0,956857
2693,000000	0,956067
2692,000000	0,954422
2691,000000	0,952664
2690,000000	0,951304
2689,000000	0,950584
2688,000000	0,950702
2687,000000	0,951734
2686,000000	0,953263
2685,000000	0,954445
2684,000000	0,954781
2683,000000	0,954675
2682,000000	0,954828
2681,000000	0,955285
2680,000000	0,955572
2679,000000	0,955673
2678,000000	0,956180
2677,000000	0,957343
2676,000000	0,958535
2675,000000	0,958941
2674,000000	0,958385
2673,000000	0,957327
2672,000000	0,956415
2671,000000	0,956153
2670,000000	0,956554
2669,000000	0,957026
2668,000000	0,956968
2667,000000	0,956546
2666,000000	0,956450
2665,000000	0,956906
2664,000000	0,957447
2663,000000	0,957605
2662,000000	0,957245
2661,000000	0,956286
2660,000000	0,954856
2659,000000	0,953774
2658,000000	0,954035
2657,000000	0,955607
2656,000000	0,957416
2655,000000	0,958697
2654,000000	0,959589
2653,000000	0,960338
2652,000000	0,960788
2651,000000	0,960896
2650,000000	0,960890
2649,000000	0,960666
2648,000000	0,959906
2647,000000	0,959017
2646,000000	0,958958
2645,000000	0,959825
2644,000000	0,960600
2643,000000	0,960660
2642,000000	0,960503
2641,000000	0,960559
2640,000000	0,960420
2639,000000	0,959807
2638,000000	0,959223
2637,000000	0,959001
2636,000000	0,958712
2635,000000	0,958186
2634,000000	0,958064
2633,000000	0,958601
2632,000000	0,958994
2631,000000	0,958761
2630,000000	0,958700
2629,000000	0,959503
2628,000000	0,960405
2627,000000	0,960383
2626,000000	0,959847
2625,000000	0,959877
2624,000000	0,960471
2623,000000	0,960765
2622,000000	0,960580
2621,000000	0,960540
2620,000000	0,960920
2619,000000	0,961353
2618,000000	0,961483
2617,000000	0,961196
2616,000000	0,960532
2615,000000	0,959960
2614,000000	0,960247
2613,000000	0,961421
2612,000000	0,962445
2611,000000	0,962580
2610,000000	0,962389
2609,000000	0,962665
2608,000000	0,963166
2607,000000	0,963248
2606,000000	0,962945
2605,000000	0,962465
2604,000000	0,961469
2603,000000	0,959954
2602,000000	0,959010
2601,000000	0,959435
2600,000000	0,960318
2599,000000	0,960340
2598,000000	0,959787
2597,000000	0,959828
2596,000000	0,960398
2595,000000	0,960429
2594,000000	0,959817
2593,000000	0,959407
2592,000000	0,959208
2591,000000	0,958363
2590,000000	0,957059
2589,000000	0,956710
2588,000000	0,957800
2587,000000	0,958999
2586,000000	0,959084
2585,000000	0,958549
2584,000000	0,958597
2583,000000	0,959433
2582,000000	0,960283
2581,000000	0,960497
2580,000000	0,960100
2579,000000	0,959655
2578,000000	0,959838
2577,000000	0,960748
2576,000000	0,961552
2575,000000	0,961360
2574,000000	0,960429
2573,000000	0,959879
2572,000000	0,960192
2571,000000	0,960705
2570,000000	0,960722
2569,000000	0,960389
2568,000000	0,960218
2567,000000	0,960350
2566,000000	0,960619
2565,000000	0,960905
2564,000000	0,961199
2563,000000	0,961591
2562,000000	0,962272
2561,000000	0,963224
2560,000000	0,964017
2559,000000	0,964249
2558,000000	0,964025
2557,000000	0,963575
2556,000000	0,962687
2555,000000	0,961182
2554,000000	0,959711
2553,000000	0,959241
2552,000000	0,959711
2551,000000	0,959999
2550,000000	0,959442
2549,000000	0,958687
2548,000000	0,958756
2547,000000	0,959794
2546,000000	0,961089
2545,000000	0,961885
2544,000000	0,961919
2543,000000	0,961410
2542,000000	0,960770
2541,000000	0,960225
2540,000000	0,959682
2539,000000	0,959093
2538,000000	0,958827
2537,000000	0,959343
2536,000000	0,960536
2535,000000	0,961662
2534,000000	0,961933
2533,000000	0,961091
2532,000000	0,959613
2531,000000	0,958501
2530,000000	0,958585
2529,000000	0,959728
2528,000000	0,960938
2527,000000	0,961473
2526,000000	0,961535
2525,000000	0,961646
2524,000000	0,961833
2523,000000	0,961808
2522,000000	0,961521
2521,000000	0,961044
2520,000000	0,960242
2519,000000	0,959092
2518,000000	0,958082
2517,000000	0,957823
2516,000000	0,958473
2515,000000	0,959808
2514,000000	0,961463
2513,000000	0,962744
2512,000000	0,962835
2511,000000	0,961770
2510,000000	0,960729
2509,000000	0,960676
2508,000000	0,961146
2507,000000	0,961045
2506,000000	0,960191
2505,000000	0,959288
2504,000000	0,958733
2503,000000	0,958401
2502,000000	0,958338
2501,000000	0,958759
2500,000000	0,959436
2499,000000	0,959879
2498,000000	0,960031
2497,000000	0,960058
2496,000000	0,959650
2495,000000	0,958457
2494,000000	0,957120
2493,000000	0,956822
2492,000000	0,957656
2491,000000	0,958395
2490,000000	0,958165
2489,000000	0,957431
2488,000000	0,957019
2487,000000	0,957044
2486,000000	0,957336
2485,000000	0,958165
2484,000000	0,959703
2483,000000	0,961275
2482,000000	0,961921
2481,000000	0,961588
2480,000000	0,961090
2479,000000	0,960932
2478,000000	0,960791
2477,000000	0,960297
2476,000000	0,959777
2475,000000	0,959799
2474,000000	0,960317
2473,000000	0,960766
2472,000000	0,960974
2471,000000	0,961416
2470,000000	0,962323
2469,000000	0,963049
2468,000000	0,962779
2467,000000	0,961598
2466,000000	0,960309
2465,000000	0,959338
2464,000000	0,958446
2463,000000	0,957504
2462,000000	0,956912
2461,000000	0,957021
2460,000000	0,957592
2459,000000	0,958044
2458,000000	0,957897
2457,000000	0,956974
2456,000000	0,955601
2455,000000	0,954643
2454,000000	0,954805
2453,000000	0,955789
2452,000000	0,956681
2451,000000	0,957186
2450,000000	0,957792
2449,000000	0,958645
2448,000000	0,959149
2447,000000	0,958961
2446,000000	0,958500
2445,000000	0,958071
2444,000000	0,957333
2443,000000	0,956210
2442,000000	0,955432
2441,000000	0,955454
2440,000000	0,955610
2439,000000	0,955258
2438,000000	0,955114
2437,000000	0,956307
2436,000000	0,958456
2435,000000	0,959832
2434,000000	0,959456
2433,000000	0,958080
2432,000000	0,956907
2431,000000	0,956165
2430,000000	0,955341
2429,000000	0,954306
2428,000000	0,953662
2427,000000	0,954048
2426,000000	0,955335
2425,000000	0,956592
2424,000000	0,956934
2423,000000	0,956427
2422,000000	0,955946
2421,000000	0,956120
2420,000000	0,956622
2419,000000	0,956684
2418,000000	0,956101
2417,000000	0,955520
2416,000000	0,955747
2415,000000	0,956776
2414,000000	0,957548
2413,000000	0,956923
2412,000000	0,955037
2411,000000	0,953351
2410,000000	0,952962
2409,000000	0,953342
2408,000000	0,953338
2407,000000	0,952945
2406,000000	0,953154
2405,000000	0,954217
2404,000000	0,955218
2403,000000	0,955490
2402,000000	0,955498
2401,000000	0,956001
2400,000000	0,957094
2399,000000	0,958339
2398,000000	0,959091
2397,000000	0,958579
2396,000000	0,956626
2395,000000	0,954480
2394,000000	0,953862
2393,000000	0,954765
2392,000000	0,955227
2391,000000	0,953799
2390,000000	0,951227
2389,000000	0,948857
2388,000000	0,946249
2387,000000	0,941413
2386,000000	0,932760
2385,000000	0,920024
2384,000000	0,903319
2383,000000	0,882267
2382,000000	0,856273
2381,000000	0,825135
2380,000000	0,789632
2379,000000	0,751325
2378,000000	0,711783
2377,000000	0,671948
2376,000000	0,632320
2375,000000	0,593744
2374,000000	0,557348
2373,000000	0,523818
2372,000000	0,493097
2371,000000	0,464860
2370,000000	0,438800
2369,000000	0,414681
2368,000000	0,392707
2367,000000	0,373509
2366,000000	0,357421
2365,000000	0,343920
2364,000000	0,332477
2363,000000	0,323483
2362,000000	0,317393
2361,000000	0,313831
2360,000000	0,312411
2359,000000	0,313897
2358,000000	0,319515
2357,000000	0,329419
2356,000000	0,343303
2355,000000	0,361707
2354,000000	0,385778
2353,000000	0,417046
2352,000000	0,457789
2351,000000	0,508600
2350,000000	0,561166
2349,000000	0,596301
2348,000000	0,595974
2347,000000	0,560532
2346,000000	0,510193
2345,000000	0,467623
2344,000000	0,441696
2343,000000	0,428514
2342,000000	0,422650
2341,000000	0,421784
2340,000000	0,423872
2339,000000	0,425956
2338,000000	0,427126
2337,000000	0,429094
2336,000000	0,433063
2335,000000	0,437745
2334,000000	0,440890
2333,000000	0,441459
2332,000000	0,440365
2331,000000	0,440323
2330,000000	0,444559
2329,000000	0,454220
2328,000000	0,467166
2327,000000	0,479952
2326,000000	0,490502
2325,000000	0,498432
2324,000000	0,504242
2323,000000	0,509769
2322,000000	0,518176
2321,000000	0,531685
2320,000000	0,549725
2319,000000	0,570254
2318,000000	0,591858
2317,000000	0,613226
2316,000000	0,631999
2315,000000	0,646417
2314,000000	0,657653
2313,000000	0,668871
2312,000000	0,682119
2311,000000	0,697256
2310,000000	0,713120
2309,000000	0,728469
2308,000000	0,742465
2307,000000	0,755748
2306,000000	0,770290
2305,000000	0,786846
2304,000000	0,803271
2303,000000	0,816803
2302,000000	0,827206
2301,000000	0,836258
2300,000000	0,844944
2299,000000	0,852907
2298,000000	0,860011
2297,000000	0,866710
2296,000000	0,873222
2295,000000	0,879578
2294,000000	0,886117
2293,000000	0,892666
2292,000000	0,898051
2291,000000	0,901765
2290,000000	0,905346
2289,000000	0,910615
2288,000000	0,917299
2287,000000	0,923799
2286,000000	0,929455
2285,000000	0,934405
2284,000000	0,938123
2283,000000	0,939960
2282,000000	0,940497
2281,000000	0,940645
2280,000000	0,939934
2279,000000	0,937512
2278,000000	0,934242
2277,000000	0,931937
2276,000000	0,930966
2275,000000	0,930355
2274,000000	0,929864
2273,000000	0,930059
2272,000000	0,930703
2271,000000	0,930901
2270,000000	0,930719
2269,000000	0,930929
2268,000000	0,931347
2267,000000	0,931096
2266,000000	0,930377
2265,000000	0,930338
2264,000000	0,931279
2263,000000	0,932471
2262,000000	0,933578
2261,000000	0,934808
2260,000000	0,935902
2259,000000	0,936500
2258,000000	0,937190
2257,000000	0,938723
2256,000000	0,940470
2255,000000	0,941192
2254,000000	0,940997
2253,000000	0,940987
2252,000000	0,941306
2251,000000	0,941253
2250,000000	0,941004
2249,000000	0,941474
2248,000000	0,942619
2247,000000	0,943522
2246,000000	0,944056
2245,000000	0,944815
2244,000000	0,945595
2243,000000	0,945581
2242,000000	0,944947
2241,000000	0,944675
2240,000000	0,944942
2239,000000	0,945259
2238,000000	0,945886
2237,000000	0,947353
2236,000000	0,948756
2235,000000	0,948511
2234,000000	0,946865
2233,000000	0,945860
2232,000000	0,946576
2231,000000	0,948038
2230,000000	0,949038
2229,000000	0,949387
2228,000000	0,949145
2227,000000	0,948217
2226,000000	0,947196
2225,000000	0,947188
2224,000000	0,948329
2223,000000	0,949470
2222,000000	0,949599
2221,000000	0,948691
2220,000000	0,947300
2219,000000	0,946277
2218,000000	0,946554
2217,000000	0,948046
2216,000000	0,949175
2215,000000	0,948721
2214,000000	0,947632
2213,000000	0,947593
2212,000000	0,948427
2211,000000	0,948664
2210,000000	0,948138
2209,000000	0,948044
2208,000000	0,948537
2207,000000	0,948442
2206,000000	0,947476
2205,000000	0,946898
2204,000000	0,947583
2203,000000	0,948945
2202,000000	0,950007
2201,000000	0,950208
2200,000000	0,949189
2199,000000	0,947217
2198,000000	0,945779
2197,000000	0,946212
2196,000000	0,947789
2195,000000	0,948624
2194,000000	0,948247
2193,000000	0,947648
2192,000000	0,947118
2191,000000	0,946060
2190,000000	0,944919
2189,000000	0,945115
2188,000000	0,946665
2187,000000	0,947774
2186,000000	0,947294
2185,000000	0,946055
2184,000000	0,945255
2183,000000	0,945134
2182,000000	0,945559
2181,000000	0,946399
2180,000000	0,946930
2179,000000	0,946312
2178,000000	0,944993
2177,000000	0,944323
2176,000000	0,944599
2175,000000	0,944880
2174,000000	0,944799
2173,000000	0,944925
2172,000000	0,945260
2171,000000	0,945082
2170,000000	0,944580
2169,000000	0,944852
2168,000000	0,945894
2167,000000	0,946263
2166,000000	0,945298
2165,000000	0,944079
2164,000000	0,943566
2163,000000	0,943337
2162,000000	0,942825
2161,000000	0,942429
2160,000000	0,942599
2159,000000	0,943030
2158,000000	0,943381
2157,000000	0,943785
2156,000000	0,944154
2155,000000	0,944046
2154,000000	0,943642
2153,000000	0,943735
2152,000000	0,944338
2151,000000	0,944407
2150,000000	0,943432
2149,000000	0,942277
2148,000000	0,941974
2147,000000	0,942488
2146,000000	0,943099
2145,000000	0,943208
2144,000000	0,942550
2143,000000	0,941366
2142,000000	0,940536
2141,000000	0,940823
2140,000000	0,941894
2139,000000	0,942724
2138,000000	0,942850
2137,000000	0,942541
2136,000000	0,942035
2135,000000	0,941474
2134,000000	0,941281
2133,000000	0,941721
2132,000000	0,942374
2131,000000	0,942827
2130,000000	0,943339
2129,000000	0,943998
2128,000000	0,943975
2127,000000	0,942723
2126,000000	0,941154
2125,000000	0,940430
2124,000000	0,940318
2123,000000	0,940045
2122,000000	0,939860
2121,000000	0,940256
2120,000000	0,940556
2119,000000	0,940004
2118,000000	0,939411
2117,000000	0,939853
2116,000000	0,940615
2115,000000	0,940362
2114,000000	0,939602
2113,000000	0,939725
2112,000000	0,940345
2111,000000	0,939968
2110,000000	0,938806
2109,000000	0,938431
2108,000000	0,938913
2107,000000	0,938829
2106,000000	0,938001
2105,000000	0,937758
2104,000000	0,938398
2103,000000	0,938872
2102,000000	0,939033
2101,000000	0,939785
2100,000000	0,940809
2099,000000	0,940652
2098,000000	0,939374
2097,000000	0,938716
2096,000000	0,939218
2095,000000	0,939546
2094,000000	0,939136
2093,000000	0,939049
2092,000000	0,939645
2091,000000	0,939726
2090,000000	0,938848
2089,000000	0,938223
2088,000000	0,938509
2087,000000	0,938690
2086,000000	0,938012
2085,000000	0,937152
2084,000000	0,936697
2083,000000	0,936285
2082,000000	0,935885
2081,000000	0,936163
2080,000000	0,936978
2079,000000	0,937343
2078,000000	0,937319
2077,000000	0,938089
2076,000000	0,939617
2075,000000	0,940311
2074,000000	0,939570
2073,000000	0,938678
2072,000000	0,938522
2071,000000	0,938450
2070,000000	0,938062
2069,000000	0,937980
2068,000000	0,938037
2067,000000	0,936849
2066,000000	0,934294
2065,000000	0,932441
2064,000000	0,932902
2063,000000	0,934859
2062,000000	0,936653
2061,000000	0,937691
2060,000000	0,937969
2059,000000	0,937501
2058,000000	0,937122
2057,000000	0,938169
2056,000000	0,940372
2055,000000	0,941711
2054,000000	0,941161
2053,000000	0,939955
2052,000000	0,939292
2051,000000	0,938649
2050,000000	0,937350
2049,000000	0,936057
2048,000000	0,935536
2047,000000	0,935450
2046,000000	0,935402
2045,000000	0,935699
2044,000000	0,936149
2043,000000	0,935679
2042,000000	0,934205
2041,000000	0,933370
2040,000000	0,934357
2039,000000	0,936250
2038,000000	0,937628
2037,000000	0,938422
2036,000000	0,939169
2035,000000	0,939664
2034,000000	0,939433
2033,000000	0,938629
2032,000000	0,937644
2031,000000	0,936729
2030,000000	0,936410
2029,000000	0,937156
2028,000000	0,938276
2027,000000	0,938468
2026,000000	0,937763
2025,000000	0,937481
2024,000000	0,937980
2023,000000	0,938150
2022,000000	0,937407
2021,000000	0,936232
2020,000000	0,934363
2019,000000	0,930824
2018,000000	0,926650
2017,000000	0,925134
2016,000000	0,927878
2015,000000	0,932515
2014,000000	0,935879
2013,000000	0,937519
2012,000000	0,938566
2011,000000	0,939079
2010,000000	0,938623
2009,000000	0,938060
2008,000000	0,938525
2007,000000	0,939502
2006,000000	0,939792
2005,000000	0,939580
2004,000000	0,939746
2003,000000	0,939906
2002,000000	0,939050
2001,000000	0,937646
2000,000000	0,937221
1999,000000	0,938060
1998,000000	0,938974
1997,000000	0,939093
1996,000000	0,938164
1995,000000	0,935205
1994,000000	0,929173
1993,000000	0,921763
1992,000000	0,917549
1991,000000	0,919573
1990,000000	0,925675
1989,000000	0,930778
1988,000000	0,932370
1987,000000	0,932259
1986,000000	0,932992
1985,000000	0,934578
1984,000000	0,935615
1983,000000	0,935974
1982,000000	0,936679
1981,000000	0,937883
1980,000000	0,938692
1979,000000	0,938739
1978,000000	0,938430
1977,000000	0,937722
1976,000000	0,936207
1975,000000	0,934504
1974,000000	0,933991
1973,000000	0,934884
1972,000000	0,935849
1971,000000	0,935566
1970,000000	0,933371
1969,000000	0,928851
1968,000000	0,922930
1967,000000	0,919124
1966,000000	0,920885
1965,000000	0,927065
1964,000000	0,932606
1963,000000	0,934521
1962,000000	0,934590
1961,000000	0,935288
1960,000000	0,936177
1959,000000	0,935889
1958,000000	0,934895
1957,000000	0,934276
1956,000000	0,933966
1955,000000	0,933934
1954,000000	0,934908
1953,000000	0,936473
1952,000000	0,936802
1951,000000	0,935580
1950,000000	0,934604
1949,000000	0,934325
1948,000000	0,932900
1947,000000	0,929716
1946,000000	0,926032
1945,000000	0,920999
1944,000000	0,912214
1943,000000	0,902592
1942,000000	0,900898
1941,000000	0,910986
1940,000000	0,925206
1939,000000	0,933528
1938,000000	0,935066
1937,000000	0,935323
1936,000000	0,936227
1935,000000	0,935539
1934,000000	0,933475
1933,000000	0,933021
1932,000000	0,934447
1931,000000	0,935061
1930,000000	0,933973
1929,000000	0,932703
1928,000000	0,931817
1927,000000	0,930437
1926,000000	0,927694
1925,000000	0,922268
1924,000000	0,913713
1923,000000	0,906573
1922,000000	0,907584
1921,000000	0,914363
1920,000000	0,914007
1919,000000	0,900245
1918,000000	0,885739
1917,000000	0,887462
1916,000000	0,904506
1915,000000	0,921075
1914,000000	0,927967
1913,000000	0,929094
1912,000000	0,928344
1911,000000	0,923668
1910,000000	0,916111
1909,000000	0,912889
1908,000000	0,917041
1907,000000	0,922965
1906,000000	0,925703
1905,000000	0,926827
1904,000000	0,928191
1903,000000	0,927811
1902,000000	0,925380
1901,000000	0,924619
1900,000000	0,926796
1899,000000	0,928023
1898,000000	0,925683
1897,000000	0,921746
1896,000000	0,918260
1895,000000	0,915546
1894,000000	0,915378
1893,000000	0,918456
1892,000000	0,918690
1891,000000	0,909168
1890,000000	0,895134
1889,000000	0,890949
1888,000000	0,901237
1887,000000	0,914800
1886,000000	0,920725
1885,000000	0,920874
1884,000000	0,921520
1883,000000	0,922744
1882,000000	0,922348
1881,000000	0,922209
1880,000000	0,923995
1879,000000	0,925024
1878,000000	0,923795
1877,000000	0,923439
1876,000000	0,925378
1875,000000	0,926169
1874,000000	0,924413
1873,000000	0,922150
1872,000000	0,915914
1871,000000	0,896915
1870,000000	0,867249
1869,000000	0,845666
1868,000000	0,848073
1867,000000	0,869328
1866,000000	0,892432
1865,000000	0,908531
1864,000000	0,918730
1863,000000	0,923880
1862,000000	0,923583
1861,000000	0,921411
1860,000000	0,921390
1859,000000	0,921995
1858,000000	0,920597
1857,000000	0,919779
1856,000000	0,922210
1855,000000	0,924247
1854,000000	0,922308
1853,000000	0,920196
1852,000000	0,921885
1851,000000	0,922684
1850,000000	0,916930
1849,000000	0,908590
1848,000000	0,902878
1847,000000	0,892085
1846,000000	0,864662
1845,000000	0,828262
1844,000000	0,809398
1843,000000	0,825137
1842,000000	0,863699
1841,000000	0,898311
1840,000000	0,913486
1839,000000	0,913330
1838,000000	0,909613
1837,000000	0,908761
1836,000000	0,910483
1835,000000	0,913260
1834,000000	0,915679
1833,000000	0,912077
1832,000000	0,893863
1831,000000	0,862731
1830,000000	0,837955
1829,000000	0,838980
1828,000000	0,859785
1827,000000	0,873838
1826,000000	0,868052
1825,000000	0,858780
1824,000000	0,866736
1823,000000	0,888656
1822,000000	0,906254
1821,000000	0,912143
1820,000000	0,912600
1819,000000	0,911545
1818,000000	0,907397
1817,000000	0,903089
1816,000000	0,904715
1815,000000	0,910089
1814,000000	0,909728
1813,000000	0,900307
1812,000000	0,888090
1811,000000	0,879777
1810,000000	0,877583
1809,000000	0,882026
1808,000000	0,891412
1807,000000	0,899749
1806,000000	0,902035
1805,000000	0,899511
1804,000000	0,893857
1803,000000	0,881598
1802,000000	0,862377
1801,000000	0,846823
1800,000000	0,845885
1799,000000	0,856505
1798,000000	0,867996
1797,000000	0,875891
1796,000000	0,878263
1795,000000	0,865360
1794,000000	0,830747
1793,000000	0,790347
1792,000000	0,773686
1791,000000	0,793056
1790,000000	0,832837
1789,000000	0,869504
1788,000000	0,889338
1787,000000	0,889057
1786,000000	0,874810
1785,000000	0,862170
1784,000000	0,863077
1783,000000	0,870630
1782,000000	0,869161
1781,000000	0,859048
1780,000000	0,856003
1779,000000	0,865271
1778,000000	0,874488
1777,000000	0,873600
1776,000000	0,863297
1775,000000	0,840360
1774,000000	0,797900
1773,000000	0,748877
1772,000000	0,727065
1771,000000	0,747829
1770,000000	0,785464
1769,000000	0,806795
1768,000000	0,812850
1767,000000	0,827909
1766,000000	0,856596
1765,000000	0,875228
1764,000000	0,864318
1763,000000	0,832735
1762,000000	0,806968
1761,000000	0,805417
1760,000000	0,824115
1759,000000	0,841211
1758,000000	0,838692
1757,000000	0,824302
1756,000000	0,823025
1755,000000	0,841147
1754,000000	0,851318
1753,000000	0,826417
1752,000000	0,778213
1751,000000	0,743524
1750,000000	0,740186
1749,000000	0,755565
1748,000000	0,774241
1747,000000	0,794114
1746,000000	0,812641
1745,000000	0,820448
1744,000000	0,816002
1743,000000	0,809190
1742,000000	0,802305
1741,000000	0,786651
1740,000000	0,766943
1739,000000	0,767291
1738,000000	0,792595
1737,000000	0,803381
1736,000000	0,758193
1735,000000	0,675490
1734,000000	0,624295
1733,000000	0,646574
1732,000000	0,714044
1731,000000	0,771210
1730,000000	0,797871
1729,000000	0,812387
1728,000000	0,830112
1727,000000	0,845135
1726,000000	0,848909
1725,000000	0,844857
1724,000000	0,841084
1723,000000	0,840261
1722,000000	0,838924
1721,000000	0,825731
1720,000000	0,784756
1719,000000	0,715950
1718,000000	0,650761
1717,000000	0,628868
1716,000000	0,656692
1715,000000	0,704392
1714,000000	0,746275
1713,000000	0,782138
1712,000000	0,814534
1711,000000	0,831759
1710,000000	0,827910
1709,000000	0,816601
1708,000000	0,806506
1707,000000	0,786515
1706,000000	0,755743
1705,000000	0,742019
1704,000000	0,757431
1703,000000	0,758798
1702,000000	0,698494
1701,000000	0,605353
1700,000000	0,562718
1699,000000	0,598676
1698,000000	0,650416
1697,000000	0,655312
1696,000000	0,634462
1695,000000	0,651116
1694,000000	0,718252
1693,000000	0,788889
1692,000000	0,820786
1691,000000	0,816884
1690,000000	0,803557
1689,000000	0,797023
1688,000000	0,790820
1687,000000	0,761324
1686,000000	0,692858
1685,000000	0,610319
1684,000000	0,572190
1683,000000	0,611314
1682,000000	0,693393
1681,000000	0,757894
1680,000000	0,785501
1679,000000	0,796377
1678,000000	0,796672
1677,000000	0,769111
1676,000000	0,720358
1675,000000	0,693737
1674,000000	0,714656
1673,000000	0,751636
1672,000000	0,756037
1671,000000	0,723026
1670,000000	0,690374
1669,000000	0,690764
1668,000000	0,724896
1667,000000	0,772224
1666,000000	0,807365
1665,000000	0,810142
1664,000000	0,781074
1663,000000	0,748458
1662,000000	0,744486
1661,000000	0,771307
1660,000000	0,802368
1659,000000	0,816599
1658,000000	0,815641
1657,000000	0,800038
1656,000000	0,749775
1655,000000	0,650146
1654,000000	0,534223
1653,000000	0,474481
1652,000000	0,515812
1651,000000	0,624470
1650,000000	0,715342
1649,000000	0,730939
1648,000000	0,686079
1647,000000	0,639152
1646,000000	0,634372
1645,000000	0,674965
1644,000000	0,734683
1643,000000	0,783115
1642,000000	0,804391
1641,000000	0,803965
1640,000000	0,795932
1639,000000	0,780008
1638,000000	0,740121
1637,000000	0,674615
1636,000000	0,617418
1635,000000	0,611888
1634,000000	0,663917
1633,000000	0,735520
1632,000000	0,784461
1631,000000	0,797680
1630,000000	0,786907
1629,000000	0,768875
1628,000000	0,756272
1627,000000	0,754167
1626,000000	0,754288
1625,000000	0,742009
1624,000000	0,717802
1623,000000	0,704067
1622,000000	0,720398
1621,000000	0,755382
1620,000000	0,772836
1619,000000	0,747565
1618,000000	0,691057
1617,000000	0,643147
1616,000000	0,639001
1615,000000	0,680173
1614,000000	0,735052
1613,000000	0,768699
1612,000000	0,772379
1611,000000	0,762685
1610,000000	0,755727
1609,000000	0,752833
1608,000000	0,750516
1607,000000	0,751240
1606,000000	0,757109
1605,000000	0,762547
1604,000000	0,761899
1603,000000	0,758629
1602,000000	0,759260
1601,000000	0,762988
1600,000000	0,764731
1599,000000	0,764103
1598,000000	0,763849
1597,000000	0,763036
1596,000000	0,759524
1595,000000	0,756490
1594,000000	0,758817
1593,000000	0,764670
1592,000000	0,767797
1591,000000	0,767129
1590,000000	0,767131
1589,000000	0,769377
1588,000000	0,770638
1587,000000	0,769642
1586,000000	0,769238
1585,000000	0,770526
1584,000000	0,770449
1583,000000	0,767527
1582,000000	0,765654
1581,000000	0,767725
1580,000000	0,766712
1579,000000	0,746782
1578,000000	0,699250
1577,000000	0,640223
1576,000000	0,607649
1575,000000	0,629482
1574,000000	0,690815
1573,000000	0,741024
1572,000000	0,741589
1571,000000	0,702484
1570,000000	0,666481
1569,000000	0,663817
1568,000000	0,688994
1567,000000	0,716794
1566,000000	0,729745
1565,000000	0,729395
1564,000000	0,726065
1563,000000	0,717548
1562,000000	0,680608
1561,000000	0,595926
1560,000000	0,487875
1559,000000	0,421873
1558,000000	0,442345
1557,000000	0,522167
1556,000000	0,594295
1555,000000	0,627450
1554,000000	0,645331
1553,000000	0,673572
1552,000000	0,701363
1551,000000	0,709663
1550,000000	0,707158
1549,000000	0,714100
1548,000000	0,726242
1547,000000	0,721191
1546,000000	0,692992
1545,000000	0,657825
1544,000000	0,627110
1543,000000	0,593805
1542,000000	0,549347
1541,000000	0,502568
1540,000000	0,478889
1539,000000	0,503345
1538,000000	0,577127
1537,000000	0,663658
1536,000000	0,709515
1535,000000	0,695081
1534,000000	0,657169
1533,000000	0,648058
1532,000000	0,678142
1531,000000	0,715514
1530,000000	0,731464
1529,000000	0,724716
1528,000000	0,704901
1527,000000	0,679554
1526,000000	0,659581
1525,000000	0,652481
1524,000000	0,644699
1523,000000	0,614378
1522,000000	0,570486
1521,000000	0,553025
1520,000000	0,580778
1519,000000	0,622269
1518,000000	0,638724
1517,000000	0,635403
1516,000000	0,644713
1515,000000	0,673384
1514,000000	0,695704
1513,000000	0,695703
1512,000000	0,685646
1511,000000	0,677262
1510,000000	0,657541
1509,000000	0,607836
1508,000000	0,536815
1507,000000	0,482591
1506,000000	0,482485
1505,000000	0,541759
1504,000000	0,627703
1503,000000	0,694202
1502,000000	0,716498
1501,000000	0,703202
1500,000000	0,675644
1499,000000	0,643653
1498,000000	0,608697
1497,000000	0,581062
1496,000000	0,578440
1495,000000	0,604440
1494,000000	0,638801
1493,000000	0,654250
1492,000000	0,640675
1491,000000	0,611987
1490,000000	0,592555
1489,000000	0,596709
1488,000000	0,619761
1487,000000	0,648088
1486,000000	0,675103
1485,000000	0,701354
1484,000000	0,722128
1483,000000	0,728181
1482,000000	0,721828
1481,000000	0,718469
1480,000000	0,724075
1479,000000	0,724479
1478,000000	0,707382
1477,000000	0,681309
1476,000000	0,659386
1475,000000	0,636975
1474,000000	0,605625
1473,000000	0,579316
1472,000000	0,584713
1471,000000	0,625830
1470,000000	0,677235
1469,000000	0,711915
1468,000000	0,720069
1467,000000	0,703812
1466,000000	0,673197
1465,000000	0,649598
1464,000000	0,652933
1463,000000	0,679193
1462,000000	0,701796
1461,000000	0,698038
1460,000000	0,662772
1459,000000	0,602427
1458,000000	0,535124
1457,000000	0,495471
1456,000000	0,512652
1455,000000	0,575459
1454,000000	0,638028
1453,000000	0,668359
1452,000000	0,674223
1451,000000	0,674791
1450,000000	0,671416
1449,000000	0,659969
1448,000000	0,651636
1447,000000	0,660677
1446,000000	0,682120
1445,000000	0,699054
1444,000000	0,704773
1443,000000	0,705336
1442,000000	0,706166
1441,000000	0,706273
1440,000000	0,699332
1439,000000	0,675176
1438,000000	0,631601
1437,000000	0,590540
1436,000000	0,585876
1435,000000	0,624304
1434,000000	0,671825
1433,000000	0,692372
1432,000000	0,685771
1431,000000	0,674732
1430,000000	0,671408
1429,000000	0,674030
1428,000000	0,682291
1427,000000	0,694026
1426,000000	0,697019
1425,000000	0,684919
1424,000000	0,672736
1423,000000	0,674423
1422,000000	0,674490
1421,000000	0,647656
1420,000000	0,602141
1419,000000	0,576910
1418,000000	0,592662
1417,000000	0,630695
1416,000000	0,663052
1415,000000	0,681838
1414,000000	0,691400
1413,000000	0,692674
1412,000000	0,687411
1411,000000	0,683316
1410,000000	0,684368
1409,000000	0,684785
1408,000000	0,679068
1407,000000	0,669042
1406,000000	0,658367
1405,000000	0,649587
1404,000000	0,648130
1403,000000	0,656651
1402,000000	0,664255
1401,000000	0,655558
1400,000000	0,634077
1399,000000	0,620754
1398,000000	0,624396
1397,000000	0,629915
1396,000000	0,623559
1395,000000	0,615007
1394,000000	0,621749
1393,000000	0,643968
1392,000000	0,666479
1391,000000	0,677126
1390,000000	0,672828
1389,000000	0,655703
1388,000000	0,635036
1387,000000	0,626301
1386,000000	0,636753
1385,000000	0,655732
1384,000000	0,668067
1383,000000	0,671500
1382,000000	0,673117
1381,000000	0,674658
1380,000000	0,672586
1379,000000	0,668274
1378,000000	0,666365
1377,000000	0,664681
1376,000000	0,656453
1375,000000	0,643283
1374,000000	0,636219
1373,000000	0,642057
1372,000000	0,654885
1371,000000	0,663983
1370,000000	0,665291
1369,000000	0,663041
1368,000000	0,663334
1367,000000	0,667160
1366,000000	0,668603
1365,000000	0,660631
1364,000000	0,644066
1363,000000	0,629137
1362,000000	0,625625
1361,000000	0,633532
1360,000000	0,645657
1359,000000	0,655948
1358,000000	0,662218
1357,000000	0,663725
1356,000000	0,661248
1355,000000	0,658419
1354,000000	0,658687
1353,000000	0,661052
1352,000000	0,661884
1351,000000	0,660266
1350,000000	0,658555
1349,000000	0,658372
1348,000000	0,658861
1347,000000	0,658963
1346,000000	0,658927
1345,000000	0,659197
1344,000000	0,658970
1343,000000	0,656046
1342,000000	0,648282
1341,000000	0,636469
1340,000000	0,625861
1339,000000	0,622566
1338,000000	0,627405
1337,000000	0,635540
1336,000000	0,642452
1335,000000	0,647624
1334,000000	0,651739
1333,000000	0,653844
1332,000000	0,653438
1331,000000	0,652268
1330,000000	0,651793
1329,000000	0,651161
1328,000000	0,649729
1327,000000	0,648914
1326,000000	0,649499
1325,000000	0,649626
1324,000000	0,647739
1323,000000	0,645135
1322,000000	0,643211
1321,000000	0,640672
1320,000000	0,636133
1319,000000	0,631461
1318,000000	0,629473
1317,000000	0,629925
1316,000000	0,630342
1315,000000	0,629703
1314,000000	0,628835
1313,000000	0,628222
1312,000000	0,627691
1311,000000	0,627484
1310,000000	0,627809
1309,000000	0,627975
1308,000000	0,627371
1307,000000	0,626403
1306,000000	0,625453
1305,000000	0,624105
1304,000000	0,622382
1303,000000	0,621226
1302,000000	0,620756
1301,000000	0,619692
1300,000000	0,617647
1299,000000	0,616119
1298,000000	0,615989
1297,000000	0,615858
1296,000000	0,614279
1295,000000	0,611927
1294,000000	0,610050
1293,000000	0,608516
1292,000000	0,606777
1291,000000	0,605241
1290,000000	0,604205
1289,000000	0,602904
1288,000000	0,600905
1287,000000	0,599089
1286,000000	0,598052
1285,000000	0,597038
1284,000000	0,595572
1283,000000	0,594501
1282,000000	0,594314
1281,000000	0,593998
1280,000000	0,592699
1279,000000	0,590924
1278,000000	0,589160
1277,000000	0,586960
1276,000000	0,584322
1275,000000	0,582054
1274,000000	0,579915
1273,000000	0,576408
1272,000000	0,571538
1271,000000	0,567551
1270,000000	0,565661
1269,000000	0,564179
1268,000000	0,561283
1267,000000	0,557621
1266,000000	0,554518
1265,000000	0,551692
1264,000000	0,548389
1263,000000	0,545097
1262,000000	0,542435
1261,000000	0,540001
1260,000000	0,537731
1259,000000	0,536706
1258,000000	0,537182
1257,000000	0,537612
1256,000000	0,537097
1255,000000	0,536918
1254,000000	0,538044
1253,000000	0,538971
1252,000000	0,537926
1251,000000	0,535507
1250,000000	0,533322
1249,000000	0,531504
1248,000000	0,529420
1247,000000	0,527413
1246,000000	0,525966
1245,000000	0,524409
1244,000000	0,522169
1243,000000	0,520126
1242,000000	0,519083
1241,000000	0,518139
1240,000000	0,516167
1239,000000	0,513751
1238,000000	0,511988
1237,000000	0,510564
1236,000000	0,508613
1235,000000	0,506430
1234,000000	0,504760
1233,000000	0,503305
1232,000000	0,501417
1231,000000	0,499365
1230,000000	0,497588
1229,000000	0,495659
1228,000000	0,493273
1227,000000	0,491198
1226,000000	0,490000
1225,000000	0,488853
1224,000000	0,486907
1223,000000	0,484770
1222,000000	0,483320
1221,000000	0,482061
1220,000000	0,479998
1219,000000	0,477322
1218,000000	0,474929
1217,000000	0,473047
1216,000000	0,471396
1215,000000	0,469948
1214,000000	0,468641
1213,000000	0,467150
1212,000000	0,465687
1211,000000	0,465013
1210,000000	0,464994
1209,000000	0,464320
1208,000000	0,462401
1207,000000	0,460276
1206,000000	0,458851
1205,000000	0,457596
1204,000000	0,455797
1203,000000	0,453742
1202,000000	0,451781
1201,000000	0,449632
1200,000000	0,447515
1199,000000	0,446531
1198,000000	0,446896
1197,000000	0,447253
1196,000000	0,446678
1195,000000	0,445820
1194,000000	0,445072
1193,000000	0,443396
1192,000000	0,440277
1191,000000	0,437197
1190,000000	0,435653
1189,000000	0,435063
1188,000000	0,434031
1187,000000	0,432355
1186,000000	0,430400
1185,000000	0,427869
1184,000000	0,424711
1183,000000	0,422003
1182,000000	0,420476
1181,000000	0,419273
1180,000000	0,417505
1179,000000	0,415776
1178,000000	0,414788
1177,000000	0,413772
1176,000000	0,411906
1175,000000	0,410054
1174,000000	0,409393
1173,000000	0,409364
1172,000000	0,408725
1171,000000	0,407666
1170,000000	0,407153
1169,000000	0,406971
1168,000000	0,406150
1167,000000	0,404699
1166,000000	0,403277
1165,000000	0,401662
1164,000000	0,399138
1163,000000	0,396053
1162,000000	0,393559
1161,000000	0,392084
1160,000000	0,391202
1159,000000	0,390627
1158,000000	0,390250
1157,000000	0,389609
1156,000000	0,388409
1155,000000	0,387176
1154,000000	0,386489
1153,000000	0,385979
1152,000000	0,384915
1151,000000	0,383292
1150,000000	0,381551
1149,000000	0,379831
1148,000000	0,378249
1147,000000	0,377262
1146,000000	0,376901
1145,000000	0,376307
1144,000000	0,374823
1143,000000	0,372958
1142,000000	0,371573
1141,000000	0,370771
1140,000000	0,370196
1139,000000	0,369639
1138,000000	0,368767
1137,000000	0,367199
1136,000000	0,365450
1135,000000	0,364739
1134,000000	0,365178
1133,000000	0,365282
1132,000000	0,364057
1131,000000	0,362334
1130,000000	0,361149
1129,000000	0,360098
1128,000000	0,358453
1127,000000	0,356689
1126,000000	0,355555
1125,000000	0,354676
1124,000000	0,353416
1123,000000	0,352228
1122,000000	0,351705
1121,000000	0,351129
1120,000000	0,349410
1119,000000	0,346883
1118,000000	0,344794
1117,000000	0,343446
1116,000000	0,342165
1115,000000	0,340647
1114,000000	0,339119
1113,000000	0,337496
1112,000000	0,335591
1111,000000	0,333810
1110,000000	0,332599
1109,000000	0,331518
1108,000000	0,329861
1107,000000	0,327917
1106,000000	0,326652
1105,000000	0,326330
1104,000000	0,326335
1103,000000	0,326154
1102,000000	0,325724
1101,000000	0,324997
1100,000000	0,323906
1099,000000	0,322676
1098,000000	0,321650
1097,000000	0,320922
1096,000000	0,320430
1095,000000	0,320036
1094,000000	0,319357
1093,000000	0,318056
1092,000000	0,316511
1091,000000	0,315474
1090,000000	0,314871
1089,000000	0,313857
1088,000000	0,312376
1087,000000	0,311520
1086,000000	0,311762
1085,000000	0,311932
1084,000000	0,310850
1083,000000	0,308943
1082,000000	0,307343
1081,000000	0,306222
1080,000000	0,305053
1079,000000	0,303859
1078,000000	0,303165
1077,000000	0,303133
1076,000000	0,303510
1075,000000	0,304109
1074,000000	0,304670
1073,000000	0,304719
1072,000000	0,304135
1071,000000	0,303441
1070,000000	0,303106
1069,000000	0,303125
1068,000000	0,303552
1067,000000	0,304586
1066,000000	0,305740
1065,000000	0,305926
1064,000000	0,304948
1063,000000	0,304006
1062,000000	0,304038
1061,000000	0,304501
1060,000000	0,304531
1059,000000	0,304301
1058,000000	0,304329
1057,000000	0,304202
1056,000000	0,303112
1055,000000	0,301028
1054,000000	0,298524
1053,000000	0,296006
1052,000000	0,293931
1051,000000	0,293208
1050,000000	0,294435
1049,000000	0,297072
1048,000000	0,300027
1047,000000	0,302804
1046,000000	0,305451
1045,000000	0,307902
1044,000000	0,309905
1043,000000	0,311368
1042,000000	0,312386
1041,000000	0,313244
1040,000000	0,314478
1039,000000	0,316368
1038,000000	0,318211
1037,000000	0,318934
1036,000000	0,318623
1035,000000	0,318475
1034,000000	0,319060
1033,000000	0,319703
1032,000000	0,319933
1031,000000	0,320272
1030,000000	0,321021
1029,000000	0,321433
1028,000000	0,320966
1027,000000	0,320364
1026,000000	0,320645
1025,000000	0,321834
1024,000000	0,323365
1023,000000	0,324940
1022,000000	0,326239
1021,000000	0,326695
1020,000000	0,326325
1019,000000	0,326027
1018,000000	0,326350
1017,000000	0,326863
1016,000000	0,327283
1015,000000	0,328234
1014,000000	0,330050
1013,000000	0,331867
1012,000000	0,332893
1011,000000	0,333624
1010,000000	0,334835
1009,000000	0,336200
1008,000000	0,336985
1007,000000	0,337274
1006,000000	0,337542
1005,000000	0,337710
1004,000000	0,337649
1003,000000	0,337874
1002,000000	0,338762
1001,000000	0,339732
1000,000000	0,340176
999,000000	0,340493
998,000000	0,341168
997,000000	0,341600
996,000000	0,340982
995,000000	0,339819
994,000000	0,339347
993,000000	0,339891
992,000000	0,340791
991,000000	0,341473
990,000000	0,341638
989,000000	0,340877
988,000000	0,339255
987,000000	0,337883
986,000000	0,337732
985,000000	0,338166
984,000000	0,337786
983,000000	0,336441
982,000000	0,335345
981,000000	0,335226
980,000000	0,335489
979,000000	0,335234
978,000000	0,334187
977,000000	0,332537
976,000000	0,330672
975,000000	0,329234
974,000000	0,328744
973,000000	0,328969
972,000000	0,329085
971,000000	0,328587
970,000000	0,327657
969,000000	0,326670
968,000000	0,325708
967,000000	0,324576
966,000000	0,323114
965,000000	0,321501
964,000000	0,320265
963,000000	0,319687
962,000000	0,319167
961,000000	0,317838
960,000000	0,315887
959,000000	0,314535
958,000000	0,314356
957,000000	0,314420
956,000000	0,313609
955,000000	0,312005
954,000000	0,310455
953,000000	0,309306
952,000000	0,308264
951,000000	0,307031
950,000000	0,305520
949,000000	0,303901
948,000000	0,302819
947,000000	0,302927
946,000000	0,303786
945,000000	0,303919
944,000000	0,302538
943,000000	0,300543
942,000000	0,299171
941,000000	0,298525
940,000000	0,298065
939,000000	0,297718
938,000000	0,297570
937,000000	0,297154
936,000000	0,296022
935,000000	0,294575
934,000000	0,293425
933,000000	0,292419
932,000000	0,291164
931,000000	0,289998
930,000000	0,289459
929,000000	0,289185
928,000000	0,288378
927,000000	0,286992
926,000000	0,285637
925,000000	0,284569
924,000000	0,283610
923,000000	0,282760
922,000000	0,282042
921,000000	0,281043
920,000000	0,279496
919,000000	0,278059
918,000000	0,277598
917,000000	0,277878
916,000000	0,277803
915,000000	0,276841
914,000000	0,275401
913,000000	0,273925
912,000000	0,272471
911,000000	0,271089
910,000000	0,269849
909,000000	0,268532
908,000000	0,266977
907,000000	0,265692
906,000000	0,265400
905,000000	0,265903
904,000000	0,266137
903,000000	0,265382
902,000000	0,263863
901,000000	0,262175
900,000000	0,260803
899,000000	0,260163
898,000000	0,260400
897,000000	0,260922
896,000000	0,260786
895,000000	0,259760
894,000000	0,258531
893,000000	0,257763
892,000000	0,257286
891,000000	0,256420
890,000000	0,254795
889,000000	0,252714
888,000000	0,250904
887,000000	0,249979
886,000000	0,249916
885,000000	0,249979
884,000000	0,249299
883,000000	0,247582
882,000000	0,245303
881,000000	0,243222
880,000000	0,241766
879,000000	0,240695
878,000000	0,239393
877,000000	0,237704
876,000000	0,236304
875,000000	0,235895
874,000000	0,236189
873,000000	0,236283
872,000000	0,236034
871,000000	0,236242
870,000000	0,237384
869,000000	0,238933
868,000000	0,240225
867,000000	0,241190
866,000000	0,241812
865,000000	0,241708
864,000000	0,240813
863,000000	0,239838
862,000000	0,239355
861,000000	0,239034
860,000000	0,238395
859,000000	0,237696
858,000000	0,237365
857,000000	0,237121
856,000000	0,236515
855,000000	0,235802
854,000000	0,235512
853,000000	0,235483
852,000000	0,235207
851,000000	0,234792
850,000000	0,234727
849,000000	0,234896
848,000000	0,234743
847,000000	0,234169
846,000000	0,233441
845,000000	0,232464
844,000000	0,231057
843,000000	0,229853
842,000000	0,229841
841,000000	0,230913
840,000000	0,231743
839,000000	0,231410
838,000000	0,230352
837,000000	0,229461
836,000000	0,228895
835,000000	0,228186
834,000000	0,226986
833,000000	0,225300
832,000000	0,223301
831,000000	0,221226
830,000000	0,219198
829,000000	0,217022
828,000000	0,214461
827,000000	0,211850
826,000000	0,210083
825,000000	0,209710
824,000000	0,210275
823,000000	0,210767
822,000000	0,210707
821,000000	0,210680
820,000000	0,211735
819,000000	0,214158
818,000000	0,216852
817,000000	0,218196
816,000000	0,217772
815,000000	0,216870
814,000000	0,216946
813,000000	0,217978
812,000000	0,218793
811,000000	0,218624
810,000000	0,217698
809,000000	0,216452
808,000000	0,215019
807,000000	0,213615
806,000000	0,212673
805,000000	0,212294
804,000000	0,212080
803,000000	0,211797
802,000000	0,211690
801,000000	0,211869
800,000000	0,211946
799,000000	0,211612
798,000000	0,211130
797,000000	0,210868
796,000000	0,210800
795,000000	0,210877
794,000000	0,211393
793,000000	0,212421
792,000000	0,213317
791,000000	0,213475
790,000000	0,213244
789,000000	0,213374
788,000000	0,213771
787,000000	0,213726
786,000000	0,213318
785,000000	0,213565
784,000000	0,214880
783,000000	0,216272
782,000000	0,216563
781,000000	0,215738
780,000000	0,214582
779,000000	0,213559
778,000000	0,212780
777,000000	0,212593
776,000000	0,213275
775,000000	0,214346
774,000000	0,214945
773,000000	0,214855
772,000000	0,214613
771,000000	0,214681
770,000000	0,215031
769,000000	0,215478
768,000000	0,215832
767,000000	0,215721
766,000000	0,214882
765,000000	0,213706
764,000000	0,212889
763,000000	0,212494
762,000000	0,211923
761,000000	0,210898
760,000000	0,209801
759,000000	0,208874
758,000000	0,207876
757,000000	0,206857
756,000000	0,206519
755,000000	0,207251
754,000000	0,208382
753,000000	0,208918
752,000000	0,208698
751,000000	0,208213
750,000000	0,207606
749,000000	0,206573
748,000000	0,205125
747,000000	0,203835
746,000000	0,203174
745,000000	0,202985
744,000000	0,202776
743,000000	0,202348
742,000000	0,201967
741,000000	0,201977
740,000000	0,202384
739,000000	0,202806
738,000000	0,202796
737,000000	0,202209
736,000000	0,201256
735,000000	0,200312
734,000000	0,199669
733,000000	0,199322
732,000000	0,198922
731,000000	0,198141
730,000000	0,197184
729,000000	0,196676
728,000000	0,196887
727,000000	0,197431
726,000000	0,197979
725,000000	0,198655
724,000000	0,199204
723,000000	0,198418
722,000000	0,195459
721,000000	0,191483
720,000000	0,188915
719,000000	0,188919
718,000000	0,190367
717,000000	0,191439
716,000000	0,191351
715,000000	0,190393
714,000000	0,189169
713,000000	0,188248
712,000000	0,187953
711,000000	0,188077
710,000000	0,188093
709,000000	0,187756
708,000000	0,187114
707,000000	0,186077
706,000000	0,184585
705,000000	0,183134
704,000000	0,182309
703,000000	0,181890
702,000000	0,181152
701,000000	0,179969
700,000000	0,178821
699,000000	0,177762
698,000000	0,176351
697,000000	0,174624
696,000000	0,173190
695,000000	0,172229
694,000000	0,171228
693,000000	0,169798
692,000000	0,167992
691,000000	0,165847
690,000000	0,163467
689,000000	0,161426
688,000000	0,160156
687,000000	0,159192
686,000000	0,158033
685,000000	0,157260
684,000000	0,157472
683,000000	0,157689
682,000000	0,156487
681,000000	0,154342
680,000000	0,153004
679,000000	0,152934
678,000000	0,153267
677,000000	0,153737
676,000000	0,154422
675,000000	0,154307
674,000000	0,152876
673,000000	0,151834
672,000000	0,151147
671,000000	0,144566
670,000000	0,126148
669,000000	0,102620
668,000000	0,092023
667,000000	0,104692
666,000000	0,130291
665,000000	0,149630
664,000000	0,154984
663,000000	0,153156
662,000000	0,151702
661,000000	0,150735
660,000000	0,148523
659,000000	0,146697
658,000000	0,146895
657,000000	0,147307
656,000000	0,146049
655,000000	0,144448
654,000000	0,144359
653,000000	0,144850
652,000000	0,144060
651,000000	0,142267
650,000000	0,140894
649,000000	0,140163
648,000000	0,139575
647,000000	0,139374
646,000000	0,139906
645,000000	0,140635
644,000000	0,140958
643,000000	0,141050
642,000000	0,141056
641,000000	0,140581
640,000000	0,139707
639,000000	0,139292
638,000000	0,139587
637,000000	0,139810
636,000000	0,139599
635,000000	0,139478
634,000000	0,139432
633,000000	0,138580
632,000000	0,136861
631,000000	0,135375
630,000000	0,134508
629,000000	0,133277
628,000000	0,131318
627,000000	0,129809
626,000000	0,129566
625,000000	0,129802
624,000000	0,129748
623,000000	0,129887
622,000000	0,130470
621,000000	0,130397
620,000000	0,128811
619,000000	0,126534
618,000000	0,124700
617,000000	0,123252
616,000000	0,121865
615,000000	0,121150
614,000000	0,121513
613,000000	0,121941
612,000000	0,121353
611,000000	0,120221
610,000000	0,119613
609,000000	0,119406
608,000000	0,118799
607,000000	0,117893
606,000000	0,117464
605,000000	0,117547
604,000000	0,117460
603,000000	0,116829
602,000000	0,115655
601,000000	0,113869
600,000000	0,111744
599,000000	0,110255
598,000000	0,110031
597,000000	0,110326
596,000000	0,109901
595,000000	0,108591
594,000000	0,107139
593,000000	0,105960
592,000000	0,104935
591,000000	0,104142
590,000000	0,103838
589,000000	0,103826
588,000000	0,103540
587,000000	0,102692
586,000000	0,101399
585,000000	0,099871
584,000000	0,098363
583,000000	0,097156
582,000000	0,096234
581,000000	0,095302
580,000000	0,094400
579,000000	0,093988
578,000000	0,094093
577,000000	0,093933
576,000000	0,092916
575,000000	0,091440
574,000000	0,090230
573,000000	0,089343
572,000000	0,088405
571,000000	0,087413
570,000000	0,086627
569,000000	0,086042
568,000000	0,085455
567,000000	0,084848
566,000000	0,084275
565,000000	0,083558
564,000000	0,082513
563,000000	0,081310
562,000000	0,080305
561,000000	0,079702
560,000000	0,079512
559,000000	0,079555
558,000000	0,079409
557,000000	0,078770
556,000000	0,077935
555,000000	0,077416
554,000000	0,077056
553,000000	0,076180
552,000000	0,074716
551,000000	0,073442
550,000000	0,072830
549,000000	0,072338
548,000000	0,071359
547,000000	0,070199
546,000000	0,069589
545,000000	0,069672
544,000000	0,069939
543,000000	0,069813
542,000000	0,068976
541,000000	0,067500
540,000000	0,065905
539,000000	0,064839
538,000000	0,064507
537,000000	0,064657
536,000000	0,065029
535,000000	0,065439
534,000000	0,065546
533,000000	0,065085
532,000000	0,064309
531,000000	0,063618
530,000000	0,062856
529,000000	0,061593
528,000000	0,059988
527,000000	0,058646
526,000000	0,057725
525,000000	0,056921
524,000000	0,056250
523,000000	0,055932
522,000000	0,055612
521,000000	0,054648
520,000000	0,053237
519,000000	0,052240
518,000000	0,051862
517,000000	0,051542
516,000000	0,051150
515,000000	0,051188
514,000000	0,051623
513,000000	0,051725
512,000000	0,051367
511,000000	0,051282
510,000000	0,051582
509,000000	0,051290
508,000000	0,049886
507,000000	0,048173
506,000000	0,046954
505,000000	0,046017
504,000000	0,045188
503,000000	0,045153
502,000000	0,046394
501,000000	0,048017
500,000000	0,048688
499,000000	0,048155
498,000000	0,047028
497,000000	0,045735
496,000000	0,044510
495,000000	0,043749
494,000000	0,043712
493,000000	0,043977
492,000000	0,043816
491,000000	0,043066
490,000000	0,041968
489,000000	0,040694
488,000000	0,039448
487,000000	0,038604
486,000000	0,038309
485,000000	0,038310
484,000000	0,038415
483,000000	0,038579
482,000000	0,038447
481,000000	0,037539
480,000000	0,036069
479,000000	0,034828
478,000000	0,034094
477,000000	0,033369
476,000000	0,032365
475,000000	0,031478
474,000000	0,030904
473,000000	0,030221
472,000000	0,029434
471,000000	0,029346
470,000000	0,030289
469,000000	0,031378
468,000000	0,031675
467,000000	0,031284
466,000000	0,030680
465,000000	0,029860
464,000000	0,028956
463,000000	0,028796
462,000000	0,029697
461,000000	0,030549
460,000000	0,030146
459,000000	0,028876
458,000000	0,028213
457,000000	0,028764
456,000000	0,029764
455,000000	0,030309
454,000000	0,030162
453,000000	0,029459
452,000000	0,028519
451,000000	0,027958
450,000000	0,028193
449,000000	0,028753
448,000000	0,028691
447,000000	0,027690
446,000000	0,026346
445,000000	0,025401
444,000000	0,025040
443,000000	0,025009
442,000000	0,025063
441,000000	0,025195
440,000000	0,025476
439,000000	0,025703
438,000000	0,025401
437,000000	0,024374
436,000000	0,023098
435,000000	0,022143
434,000000	0,021450
433,000000	0,020659
432,000000	0,019941
431,000000	0,019967
430,000000	0,020482
429,000000	0,020445
428,000000	0,019558
427,000000	0,018461
426,000000	0,017658
425,000000	0,016951
424,000000	0,016205
423,000000	0,015710
422,000000	0,015275
421,000000	0,014319
420,000000	0,013128
419,000000	0,012589
418,000000	0,012970
417,000000	0,013864
416,000000	0,014841
415,000000	0,015726
414,000000	0,016310
413,000000	0,016226
412,000000	0,015467
411,000000	0,014661
410,000000	0,014294
409,000000	0,014008
408,000000	0,013265
407,000000	0,012168
406,000000	0,010786
405,000000	0,009206
404,000000	0,008243
403,000000	0,008693
402,000000	0,009925
401,000000	0,010161
400,000000	0,008769
399,000000	0,007140
398,000000	0,006422
397,000000	0,006133
396,000000	0,005376
395,000000	0,004263
394,000000	0,003842
393,000000	0,004673
392,000000	0,005629
391,000000	0,006082
390,000000	0,006089
389,000000	0,005566
388,000000	0,004882
387,000000	0,005512
386,000000	0,007384
385,000000	0,008592
384,000000	0,008146
383,000000	0,006691
382,000000	0,005176
381,000000	0,003896
380,000000	0,003216
379,000000	0,003194
378,000000	0,004090
377,000000	0,005485
376,000000	0,005471
375,000000	0,003892
374,000000	0,002537
373,000000	0,002112
372,000000	0,001697
371,000000	0,000726
370,000000	0,000951
369,000000	0,001575
368,000000	0,001815
367,000000	0,001772
366,000000	0,001690
365,000000	0,001635
364,000000	0,001305
363,000000	0,000501
362,000000	0,000709
361,000000	0,001674
360,000000	0,001616
359,000000	0,000945
358,000000	0,001019
357,000000	0,001631
356,000000	0,002341
355,000000	0,002591
354,000000	0,002051
353,000000	0,001282
352,000000	0,000677
351,000000	0,000419
350,000000	0,000918
349,000000	0,001083
348,000000	0,000962
347,000000	0,001280
346,000000	0,001262
345,000000	0,001519
344,000000	0,002591
343,000000	0,003800
342,000000	0,004228
341,000000	0,003779
340,000000	0,003029
339,000000	0,002548
338,000000	0,001854
337,000000	0,001423
336,000000	0,002431
335,000000	0,004362
334,000000	0,005147
333,000000	0,004455
332,000000	0,003872
331,000000	0,003173
330,000000	0,001591
329,000000	0,000494
328,000000	0,001806
327,000000	0,002296
326,000000	0,001955
325,000000	0,002012
324,000000	0,001279
323,000000	0,001082
322,000000	0,002591
321,000000	0,003704
320,000000	0,003076
319,000000	0,002343
318,000000	0,002890
317,000000	0,002005
316,000000	0,003164
315,000000	0,011859
314,000000	0,016157
313,000000	0,013047
312,000000	0,006966
311,000000	0,002930
310,000000	0,001410
309,000000	0,002595
308,000000	0,002944
307,000000	0,002512
306,000000	0,002608
305,000000	0,002581
304,000000	0,002333
303,000000	0,001755
302,000000	0,001180
301,000000	0,000761
300,000000	0,001879
