PE IR       SUBTECH     SPECTRUM    ASCII       PEDS        4.00        
   -1
silicon empty.ASC
25/06/17
10:28:40.00
25/06/17
10:28:40.00
Praktikum
Sample 022 By Praktikum date Dienstag, Juni 17 2025
300,000000
#HDR
-1
-1
#GR
cm-1
EGY
1.0
0.0
4000,000000
-1,000000
3701
8
60,935851
0,003237
#DATA
4000,000000	41,385250
3999,000000	41,392111
3998,000000	41,384198
3997,000000	41,368739
3996,000000	41,359776
3995,000000	41,365493
3994,000000	41,380134
3993,000000	41,393292
3992,000000	41,405765
3991,000000	41,430942
3990,000000	41,477929
3989,000000	41,537847
3988,000000	41,590324
3987,000000	41,620936
3986,000000	41,629662
3985,000000	41,626277
3984,000000	41,623274
3983,000000	41,631775
3982,000000	41,656539
3981,000000	41,689856
3980,000000	41,713180
3979,000000	41,709329
3978,000000	41,676650
3977,000000	41,632073
3976,000000	41,600078
3975,000000	41,597432
3974,000000	41,623940
3973,000000	41,665686
3972,000000	41,708120
3971,000000	41,747741
3970,000000	41,792613
3969,000000	41,851037
3968,000000	41,916944
3967,000000	41,965228
3966,000000	41,965149
3965,000000	41,906337
3964,000000	41,817453
3963,000000	41,753203
3962,000000	41,753214
3961,000000	41,810931
3960,000000	41,885314
3959,000000	41,941502
3958,000000	41,976177
3957,000000	42,003958
3956,000000	42,027455
3955,000000	42,025084
3954,000000	41,962601
3953,000000	41,815841
3952,000000	41,595033
3951,000000	41,361598
3950,000000	41,214173
3949,000000	41,228631
3948,000000	41,381338
3947,000000	41,533841
3946,000000	41,535212
3945,000000	41,368371
3944,000000	41,193915
3943,000000	41,216222
3942,000000	41,489742
3941,000000	41,877914
3940,000000	42,200041
3939,000000	42,378280
3938,000000	42,423078
3937,000000	42,323186
3936,000000	42,027704
3935,000000	41,555388
3934,000000	41,066838
3933,000000	40,786600
3932,000000	40,843913
3931,000000	41,186270
3930,000000	41,612807
3929,000000	41,883737
3928,000000	41,863980
3927,000000	41,621066
3926,000000	41,376181
3925,000000	41,319789
3924,000000	41,442186
3923,000000	41,555766
3922,000000	41,474418
3921,000000	41,162443
3920,000000	40,748036
3919,000000	40,443604
3918,000000	40,450867
3917,000000	40,852959
3916,000000	41,540209
3915,000000	42,257244
3914,000000	42,770042
3913,000000	43,018973
3912,000000	43,097763
3911,000000	43,092085
3910,000000	42,949342
3909,000000	42,495654
3908,000000	41,578918
3907,000000	40,237284
3906,000000	38,762548
3905,000000	37,567130
3904,000000	36,919111
3903,000000	36,796549
3902,000000	37,022459
3901,000000	37,519603
3900,000000	38,370706
3899,000000	39,596873
3898,000000	40,955804
3897,000000	42,006398
3896,000000	42,362753
3895,000000	41,909924
3894,000000	40,901112
3893,000000	39,919703
3892,000000	39,584828
3891,000000	40,042724
3890,000000	40,708927
3889,000000	40,752434
3888,000000	39,936859
3887,000000	38,925423
3886,000000	38,589680
3885,000000	39,090501
3884,000000	39,775798
3883,000000	39,970133
3882,000000	39,719047
3881,000000	39,672065
3880,000000	40,292149
3879,000000	41,307496
3878,000000	41,973369
3877,000000	41,834033
3876,000000	41,131260
3875,000000	40,389696
3874,000000	39,748569
3873,000000	38,918369
3872,000000	37,834526
3871,000000	37,051733
3870,000000	37,200330
3869,000000	38,161560
3868,000000	39,095152
3867,000000	39,330952
3866,000000	39,022978
3865,000000	38,837763
3864,000000	39,197764
3863,000000	40,012741
3862,000000	40,961206
3861,000000	41,776061
3860,000000	42,194338
3859,000000	41,811976
3858,000000	40,186855
3857,000000	37,231536
3856,000000	33,622048
3855,000000	30,748508
3854,000000	29,978350
3853,000000	31,708134
3852,000000	35,078923
3851,000000	38,644234
3850,000000	41,344915
3849,000000	42,877138
3848,000000	43,396811
3847,000000	43,148560
3846,000000	42,413556
3845,000000	41,529783
3844,000000	40,741746
3843,000000	40,020301
3842,000000	39,130980
3841,000000	37,941171
3840,000000	36,682888
3839,000000	35,883299
3838,000000	35,989254
3837,000000	36,976294
3836,000000	38,329358
3835,000000	39,451797
3834,000000	40,124126
3833,000000	40,573863
3832,000000	41,117296
3831,000000	41,791230
3830,000000	42,337788
3829,000000	42,538460
3828,000000	42,481108
3827,000000	42,399284
3826,000000	42,230394
3825,000000	41,504907
3824,000000	39,921713
3823,000000	38,012948
3822,000000	36,905547
3821,000000	37,202323
3820,000000	38,237676
3819,000000	38,784755
3818,000000	38,437264
3817,000000	38,043813
3816,000000	38,685009
3815,000000	40,484566
3814,000000	42,600506
3813,000000	44,102842
3812,000000	44,586424
3811,000000	44,045663
3810,000000	42,669012
3809,000000	40,972441
3808,000000	39,803714
3807,000000	39,722804
3806,000000	40,298285
3805,000000	40,383213
3804,000000	39,335341
3803,000000	37,843135
3802,000000	37,266310
3801,000000	38,191585
3800,000000	39,897463
3799,000000	41,248171
3798,000000	41,871142
3797,000000	42,247010
3796,000000	42,909341
3795,000000	43,851130
3794,000000	44,703260
3793,000000	45,208415
3792,000000	45,392430
3791,000000	45,411807
3790,000000	45,367151
3789,000000	45,249895
3788,000000	45,014106
3787,000000	44,704383
3786,000000	44,480843
3785,000000	44,460750
3784,000000	44,519964
3783,000000	44,360093
3782,000000	43,845668
3781,000000	43,237724
3780,000000	43,011713
3779,000000	43,415786
3778,000000	44,248529
3777,000000	45,068172
3776,000000	45,552088
3775,000000	45,599848
3774,000000	45,174899
3773,000000	44,262200
3772,000000	43,085870
3771,000000	42,175927
3770,000000	41,961288
3769,000000	42,320232
3768,000000	42,750907
3767,000000	43,008368
3766,000000	43,313871
3765,000000	43,850779
3764,000000	44,313044
3763,000000	44,214411
3762,000000	43,493433
3761,000000	42,604332
3760,000000	42,070446
3759,000000	42,099804
3758,000000	42,510184
3757,000000	42,786208
3756,000000	42,276506
3755,000000	40,637471
3754,000000	38,183021
3753,000000	35,731475
3752,000000	34,122853
3751,000000	33,853448
3750,000000	34,842827
3749,000000	36,242925
3748,000000	36,745308
3747,000000	35,680133
3746,000000	33,946279
3745,000000	33,402846
3744,000000	35,053720
3743,000000	38,080250
3742,000000	40,740959
3741,000000	41,868390
3740,000000	41,369574
3739,000000	39,758808
3738,000000	37,755314
3737,000000	36,149958
3736,000000	35,488688
3735,000000	35,746609
3734,000000	36,553529
3733,000000	37,720756
3732,000000	39,256866
3731,000000	40,898972
3730,000000	42,018615
3729,000000	42,214907
3728,000000	41,768160
3727,000000	41,316047
3726,000000	41,213625
3725,000000	41,372284
3724,000000	41,612265
3723,000000	41,935353
3722,000000	42,427453
3721,000000	43,074848
3720,000000	43,771187
3719,000000	44,424638
3718,000000	44,927440
3717,000000	45,019223
3716,000000	44,332556
3715,000000	42,742124
3714,000000	40,681458
3713,000000	38,996527
3712,000000	38,390334
3711,000000	38,979877
3710,000000	40,372016
3709,000000	42,033459
3708,000000	43,526466
3707,000000	44,529771
3706,000000	44,828234
3705,000000	44,423255
3704,000000	43,623744
3703,000000	42,964608
3702,000000	42,917957
3701,000000	43,550408
3700,000000	44,469269
3699,000000	45,176173
3698,000000	45,489545
3697,000000	45,546155
3696,000000	45,425915
3695,000000	44,952309
3694,000000	43,920585
3693,000000	42,363638
3692,000000	40,545071
3691,000000	38,887477
3690,000000	37,983757
3689,000000	38,411013
3688,000000	40,221637
3687,000000	42,690245
3686,000000	44,815319
3685,000000	46,053230
3684,000000	46,471133
3683,000000	46,346443
3682,000000	45,867606
3681,000000	45,097566
3680,000000	43,907997
3679,000000	42,006176
3678,000000	39,459881
3677,000000	37,200727
3676,000000	36,514663
3675,000000	37,670038
3674,000000	39,387800
3673,000000	40,085378
3672,000000	39,516763
3671,000000	38,909724
3670,000000	39,541652
3669,000000	41,514842
3668,000000	43,937654
3667,000000	45,896650
3666,000000	47,049907
3665,000000	47,534387
3664,000000	47,640111
3663,000000	47,617384
3662,000000	47,558094
3661,000000	47,315642
3660,000000	46,609382
3659,000000	45,367016
3658,000000	44,029222
3657,000000	43,340918
3656,000000	43,629520
3655,000000	44,281082
3654,000000	44,113278
3653,000000	42,460428
3652,000000	39,829135
3651,000000	37,477268
3650,000000	36,451886
3649,000000	37,044219
3648,000000	38,933418
3647,000000	41,492295
3646,000000	43,968899
3645,000000	45,740695
3644,000000	46,636250
3643,000000	46,943007
3642,000000	47,035060
3641,000000	47,065099
3640,000000	47,031688
3639,000000	46,950345
3638,000000	46,809529
3637,000000	46,513072
3636,000000	46,041794
3635,000000	45,534047
3634,000000	44,966790
3633,000000	43,882549
3632,000000	41,830385
3631,000000	39,219373
3630,000000	37,392667
3629,000000	37,554753
3628,000000	39,648501
3627,000000	42,461175
3626,000000	44,711033
3625,000000	45,852509
3624,000000	45,937245
3623,000000	45,164049
3622,000000	43,812985
3621,000000	42,425789
3620,000000	41,682938
3619,000000	41,936862
3618,000000	42,891312
3617,000000	43,828768
3616,000000	44,201618
3615,000000	44,020707
3614,000000	43,684976
3613,000000	43,480255
3612,000000	43,324444
3611,000000	43,032941
3610,000000	42,729323
3609,000000	42,826261
3608,000000	43,573312
3607,000000	44,748767
3606,000000	45,841308
3605,000000	46,464679
3604,000000	46,555629
3603,000000	46,294125
3602,000000	45,950548
3601,000000	45,745435
3600,000000	45,719136
3599,000000	45,717132
3598,000000	45,566155
3597,000000	45,281112
3596,000000	45,076109
3595,000000	45,165259
3594,000000	45,548416
3593,000000	45,938385
3592,000000	45,893629
3591,000000	45,131805
3590,000000	43,857309
3589,000000	42,749165
3588,000000	42,500320
3587,000000	43,289092
3586,000000	44,695393
3585,000000	46,088476
3584,000000	47,052998
3583,000000	47,522841
3582,000000	47,657434
3581,000000	47,664718
3580,000000	47,678649
3579,000000	47,724720
3578,000000	47,771006
3577,000000	47,806452
3576,000000	47,857766
3575,000000	47,942735
3574,000000	48,024471
3573,000000	47,982056
3572,000000	47,603919
3571,000000	46,694034
3570,000000	45,313192
3569,000000	43,927119
3568,000000	43,180754
3567,000000	43,428499
3566,000000	44,466423
3565,000000	45,733728
3564,000000	46,737616
3563,000000	47,314565
3562,000000	47,580425
3561,000000	47,737174
3560,000000	47,915952
3559,000000	48,128741
3558,000000	48,304429
3557,000000	48,352980
3556,000000	48,221620
3555,000000	47,939577
3554,000000	47,640857
3553,000000	47,503381
3552,000000	47,591436
3551,000000	47,751891
3550,000000	47,725782
3549,000000	47,403756
3548,000000	46,947203
3547,000000	46,647320
3546,000000	46,688262
3545,000000	47,047912
3544,000000	47,567279
3543,000000	48,068054
3542,000000	48,428531
3541,000000	48,603143
3540,000000	48,605269
3539,000000	48,486173
3538,000000	48,334453
3537,000000	48,260466
3536,000000	48,325826
3535,000000	48,476356
3534,000000	48,576211
3533,000000	48,525671
3532,000000	48,327629
3531,000000	48,051408
3530,000000	47,776131
3529,000000	47,574536
3528,000000	47,489749
3527,000000	47,493823
3526,000000	47,512879
3525,000000	47,525832
3524,000000	47,603721
3523,000000	47,810149
3522,000000	48,096667
3521,000000	48,343497
3520,000000	48,488000
3519,000000	48,562759
3518,000000	48,620095
3517,000000	48,669013
3516,000000	48,691772
3515,000000	48,674817
3514,000000	48,603141
3513,000000	48,459051
3512,000000	48,260590
3511,000000	48,090128
3510,000000	48,047165
3509,000000	48,151295
3508,000000	48,294251
3507,000000	48,313438
3506,000000	48,136572
3505,000000	47,861981
3504,000000	47,684982
3503,000000	47,734128
3502,000000	47,975645
3501,000000	48,260964
3500,000000	48,452357
3499,000000	48,505071
3498,000000	48,467788
3497,000000	48,428407
3496,000000	48,448930
3495,000000	48,528402
3494,000000	48,617392
3493,000000	48,666586
3492,000000	48,656038
3491,000000	48,590798
3490,000000	48,495182
3489,000000	48,416977
3488,000000	48,403605
3487,000000	48,449325
3486,000000	48,482330
3485,000000	48,432044
3484,000000	48,307697
3483,000000	48,196842
3482,000000	48,186345
3481,000000	48,294133
3480,000000	48,464268
3479,000000	48,611565
3478,000000	48,678955
3477,000000	48,671708
3476,000000	48,643758
3475,000000	48,644506
3474,000000	48,680109
3473,000000	48,724770
3472,000000	48,754535
3471,000000	48,760289
3470,000000	48,742713
3469,000000	48,714204
3468,000000	48,698368
3467,000000	48,708433
3466,000000	48,727772
3465,000000	48,727455
3464,000000	48,704193
3463,000000	48,688175
3462,000000	48,710289
3461,000000	48,771676
3460,000000	48,846775
3459,000000	48,908493
3458,000000	48,947628
3457,000000	48,973226
3456,000000	48,998092
3455,000000	49,025262
3454,000000	49,050196
3453,000000	49,066467
3452,000000	49,055120
3451,000000	48,975155
3450,000000	48,799178
3449,000000	48,575803
3448,000000	48,427268
3447,000000	48,445845
3446,000000	48,597567
3445,000000	48,761422
3444,000000	48,858848
3443,000000	48,913782
3442,000000	48,983911
3441,000000	49,076323
3440,000000	49,155433
3439,000000	49,202795
3438,000000	49,233781
3437,000000	49,264983
3436,000000	49,295093
3435,000000	49,318466
3434,000000	49,337075
3433,000000	49,355411
3432,000000	49,376892
3431,000000	49,407652
3430,000000	49,452774
3429,000000	49,507468
3428,000000	49,560249
3427,000000	49,602926
3426,000000	49,627364
3425,000000	49,616740
3424,000000	49,558237
3423,000000	49,471926
3422,000000	49,413241
3421,000000	49,433887
3420,000000	49,539558
3419,000000	49,687575
3418,000000	49,821467
3417,000000	49,907046
3416,000000	49,944776
3415,000000	49,958189
3414,000000	49,971270
3413,000000	49,992511
3412,000000	50,017230
3411,000000	50,040509
3410,000000	50,062824
3409,000000	50,084817
3408,000000	50,103682
3407,000000	50,116210
3406,000000	50,121334
3405,000000	50,119951
3404,000000	50,117137
3403,000000	50,122599
3402,000000	50,140239
3401,000000	50,158646
3400,000000	50,163475
3399,000000	50,160899
3398,000000	50,174373
3397,000000	50,210745
3396,000000	50,244276
3395,000000	50,249186
3394,000000	50,239560
3393,000000	50,259446
3392,000000	50,333398
3391,000000	50,439561
3390,000000	50,532897
3389,000000	50,583606
3388,000000	50,591483
3387,000000	50,577388
3386,000000	50,569132
3385,000000	50,587518
3384,000000	50,634225
3383,000000	50,692115
3382,000000	50,740957
3381,000000	50,773378
3380,000000	50,795634
3379,000000	50,816600
3378,000000	50,839672
3377,000000	50,863656
3376,000000	50,887164
3375,000000	50,909867
3374,000000	50,930161
3373,000000	50,943575
3372,000000	50,945153
3371,000000	50,933419
3370,000000	50,911655
3369,000000	50,886462
3368,000000	50,867337
3367,000000	50,865524
3366,000000	50,887118
3365,000000	50,925239
3364,000000	50,964548
3363,000000	50,996577
3362,000000	51,026576
3361,000000	51,061747
3360,000000	51,097584
3359,000000	51,122558
3358,000000	51,134478
3357,000000	51,145386
3356,000000	51,168768
3355,000000	51,205925
3354,000000	51,246244
3353,000000	51,278471
3352,000000	51,300585
3351,000000	51,319584
3350,000000	51,342610
3349,000000	51,369412
3348,000000	51,394444
3347,000000	51,414395
3346,000000	51,430152
3345,000000	51,442778
3344,000000	51,452604
3343,000000	51,461916
3342,000000	51,472278
3341,000000	51,477951
3340,000000	51,469533
3339,000000	51,448212
3338,000000	51,431105
3337,000000	51,437647
3336,000000	51,473286
3335,000000	51,528246
3334,000000	51,587027
3333,000000	51,635929
3332,000000	51,667036
3331,000000	51,680885
3330,000000	51,683968
3329,000000	51,682058
3328,000000	51,678890
3327,000000	51,681022
3326,000000	51,696716
3325,000000	51,727063
3324,000000	51,764015
3323,000000	51,799725
3322,000000	51,831988
3321,000000	51,859274
3320,000000	51,878640
3319,000000	51,891803
3318,000000	51,904594
3317,000000	51,916248
3316,000000	51,918735
3315,000000	51,911437
3314,000000	51,905828
3313,000000	51,908286
3312,000000	51,909155
3311,000000	51,900019
3310,000000	51,893398
3309,000000	51,911204
3308,000000	51,957908
3307,000000	52,016424
3306,000000	52,068200
3305,000000	52,107741
3304,000000	52,138485
3303,000000	52,164385
3302,000000	52,186423
3301,000000	52,201604
3300,000000	52,206465
3299,000000	52,205403
3298,000000	52,210540
3297,000000	52,226782
3296,000000	52,242167
3295,000000	52,242165
3294,000000	52,230351
3293,000000	52,226219
3292,000000	52,244060
3291,000000	52,281494
3290,000000	52,327531
3289,000000	52,372407
3288,000000	52,409031
3287,000000	52,433029
3286,000000	52,445313
3285,000000	52,451982
3284,000000	52,460210
3283,000000	52,474441
3282,000000	52,493792
3281,000000	52,510763
3280,000000	52,515204
3279,000000	52,503108
3278,000000	52,480129
3277,000000	52,456466
3276,000000	52,442427
3275,000000	52,448393
3274,000000	52,480885
3273,000000	52,534650
3272,000000	52,594574
3271,000000	52,648585
3270,000000	52,693618
3269,000000	52,728102
3268,000000	52,748209
3267,000000	52,756466
3266,000000	52,764663
3265,000000	52,781209
3264,000000	52,801929
3263,000000	52,818806
3262,000000	52,831101
3261,000000	52,841917
3260,000000	52,850629
3259,000000	52,854818
3258,000000	52,854429
3257,000000	52,850441
3256,000000	52,846600
3255,000000	52,855041
3254,000000	52,889242
3253,000000	52,945318
3252,000000	53,000644
3251,000000	53,036852
3250,000000	53,052800
3249,000000	53,050643
3248,000000	53,025963
3247,000000	52,985738
3246,000000	52,960589
3245,000000	52,979287
3244,000000	53,035735
3243,000000	53,096973
3242,000000	53,140059
3241,000000	53,165919
3240,000000	53,182936
3239,000000	53,194125
3238,000000	53,201940
3237,000000	53,211046
3236,000000	53,222028
3235,000000	53,231521
3234,000000	53,240464
3233,000000	53,254097
3232,000000	53,272810
3231,000000	53,290958
3230,000000	53,306466
3229,000000	53,325085
3228,000000	53,352980
3227,000000	53,389489
3226,000000	53,427453
3225,000000	53,456943
3224,000000	53,468858
3223,000000	53,460230
3222,000000	53,439077
3221,000000	53,422910
3220,000000	53,428926
3219,000000	53,460026
3218,000000	53,497926
3217,000000	53,517132
3216,000000	53,512684
3215,000000	53,508958
3214,000000	53,530436
3213,000000	53,568996
3212,000000	53,596433
3211,000000	53,605882
3210,000000	53,621683
3209,000000	53,662827
3208,000000	53,717392
3207,000000	53,761947
3206,000000	53,790478
3205,000000	53,811341
3204,000000	53,828800
3203,000000	53,840587
3202,000000	53,844426
3201,000000	53,837005
3200,000000	53,816353
3199,000000	53,794800
3198,000000	53,797924
3197,000000	53,838729
3196,000000	53,900786
3195,000000	53,957092
3194,000000	53,996977
3193,000000	54,025233
3192,000000	54,046674
3191,000000	54,063477
3190,000000	54,079211
3189,000000	54,092722
3188,000000	54,095472
3187,000000	54,086408
3186,000000	54,081982
3185,000000	54,099775
3184,000000	54,136662
3183,000000	54,172326
3182,000000	54,188330
3181,000000	54,179117
3180,000000	54,154232
3179,000000	54,138780
3178,000000	54,159239
3177,000000	54,216504
3176,000000	54,281469
3175,000000	54,326381
3174,000000	54,351292
3173,000000	54,370377
3172,000000	54,387123
3171,000000	54,397615
3170,000000	54,406992
3169,000000	54,424452
3168,000000	54,447950
3167,000000	54,469071
3166,000000	54,487670
3165,000000	54,508622
3164,000000	54,529598
3163,000000	54,545463
3162,000000	54,559554
3161,000000	54,578055
3160,000000	54,598207
3159,000000	54,613876
3158,000000	54,627396
3157,000000	54,643962
3156,000000	54,659872
3155,000000	54,668888
3154,000000	54,675451
3153,000000	54,689541
3152,000000	54,712183
3151,000000	54,737037
3150,000000	54,761874
3149,000000	54,787954
3148,000000	54,812183
3147,000000	54,830441
3146,000000	54,844988
3145,000000	54,859858
3144,000000	54,873463
3143,000000	54,883781
3142,000000	54,895225
3141,000000	54,912238
3140,000000	54,932365
3139,000000	54,952570
3138,000000	54,973078
3137,000000	54,987290
3136,000000	54,980340
3135,000000	54,952179
3134,000000	54,931725
3133,000000	54,950611
3132,000000	55,005841
3131,000000	55,063007
3130,000000	55,093651
3129,000000	55,098064
3128,000000	55,093124
3127,000000	55,090971
3126,000000	55,091332
3125,000000	55,087460
3124,000000	55,078021
3123,000000	55,073734
3122,000000	55,086919
3121,000000	55,112687
3120,000000	55,130720
3119,000000	55,131030
3118,000000	55,127449
3117,000000	55,139292
3116,000000	55,170357
3115,000000	55,213892
3114,000000	55,264673
3113,000000	55,315438
3112,000000	55,352726
3111,000000	55,370806
3110,000000	55,381850
3109,000000	55,400838
3108,000000	55,427219
3107,000000	55,450597
3106,000000	55,464573
3105,000000	55,464704
3104,000000	55,445700
3103,000000	55,415554
3102,000000	55,402271
3101,000000	55,427350
3100,000000	55,477191
3099,000000	55,516309
3098,000000	55,527913
3097,000000	55,528850
3096,000000	55,546695
3095,000000	55,593302
3094,000000	55,658653
3093,000000	55,720886
3092,000000	55,762070
3091,000000	55,781170
3090,000000	55,790507
3089,000000	55,798940
3088,000000	55,805303
3087,000000	55,809747
3086,000000	55,818542
3085,000000	55,830683
3084,000000	55,832853
3083,000000	55,817748
3082,000000	55,797481
3081,000000	55,789561
3080,000000	55,799758
3079,000000	55,827206
3078,000000	55,873206
3077,000000	55,932166
3076,000000	55,985057
3075,000000	56,016776
3074,000000	56,032268
3073,000000	56,043581
3072,000000	56,048984
3071,000000	56,037294
3070,000000	56,005512
3069,000000	55,960907
3068,000000	55,913726
3067,000000	55,879003
3066,000000	55,876156
3065,000000	55,912527
3064,000000	55,972022
3063,000000	56,030312
3062,000000	56,074682
3061,000000	56,100776
3060,000000	56,102413
3059,000000	56,081325
3058,000000	56,059344
3057,000000	56,064316
3056,000000	56,104237
3055,000000	56,163584
3054,000000	56,219697
3053,000000	56,254676
3052,000000	56,260217
3051,000000	56,245428
3050,000000	56,235206
3049,000000	56,249026
3048,000000	56,283008
3047,000000	56,319385
3046,000000	56,347440
3045,000000	56,366793
3044,000000	56,378523
3043,000000	56,384671
3042,000000	56,392009
3041,000000	56,405142
3040,000000	56,418270
3039,000000	56,420973
3038,000000	56,409446
3037,000000	56,386101
3036,000000	56,353301
3035,000000	56,313852
3034,000000	56,274829
3033,000000	56,247291
3032,000000	56,243861
3031,000000	56,273417
3030,000000	56,327924
3029,000000	56,376725
3028,000000	56,389253
3027,000000	56,366240
3026,000000	56,335585
3025,000000	56,315736
3024,000000	56,300177
3023,000000	56,279894
3022,000000	56,259081
3021,000000	56,239691
3020,000000	56,212125
3019,000000	56,175197
3018,000000	56,148736
3017,000000	56,150754
3016,000000	56,176244
3015,000000	56,211849
3014,000000	56,258530
3013,000000	56,325098
3012,000000	56,410759
3011,000000	56,507800
3010,000000	56,609619
3009,000000	56,704132
3008,000000	56,771118
3007,000000	56,802372
3006,000000	56,815608
3005,000000	56,835446
3004,000000	56,868226
3003,000000	56,904944
3002,000000	56,938487
3001,000000	56,965247
3000,000000	56,980362
2999,000000	56,983501
2998,000000	56,982351
2997,000000	56,981378
2996,000000	56,976560
2995,000000	56,969121
2994,000000	56,971524
2993,000000	56,989123
2992,000000	57,008120
2991,000000	57,013375
2990,000000	57,007846
2989,000000	57,003267
2988,000000	57,002597
2987,000000	57,002542
2986,000000	57,002588
2985,000000	57,000039
2984,000000	56,985909
2983,000000	56,956567
2982,000000	56,920884
2981,000000	56,887464
2980,000000	56,854345
2979,000000	56,818222
2978,000000	56,780959
2977,000000	56,739928
2976,000000	56,685533
2975,000000	56,617293
2974,000000	56,548068
2973,000000	56,482754
2972,000000	56,407915
2971,000000	56,312631
2970,000000	56,205117
2969,000000	56,097908
2968,000000	55,991978
2967,000000	55,887383
2966,000000	55,794063
2965,000000	55,718688
2964,000000	55,653913
2963,000000	55,593465
2962,000000	55,544516
2961,000000	55,513167
2960,000000	55,491694
2959,000000	55,472386
2958,000000	55,460360
2957,000000	55,459474
2956,000000	55,459906
2955,000000	55,453387
2954,000000	55,447114
2953,000000	55,448860
2952,000000	55,450485
2951,000000	55,440306
2950,000000	55,419455
2949,000000	55,393188
2948,000000	55,357829
2947,000000	55,309200
2946,000000	55,252377
2945,000000	55,190522
2944,000000	55,116180
2943,000000	55,024666
2942,000000	54,924191
2941,000000	54,821814
2940,000000	54,713125
2939,000000	54,596932
2938,000000	54,485570
2937,000000	54,388513
2936,000000	54,299554
2935,000000	54,211891
2934,000000	54,131113
2933,000000	54,060704
2932,000000	53,990453
2931,000000	53,913280
2930,000000	53,839838
2929,000000	53,783353
2928,000000	53,744161
2927,000000	53,722676
2926,000000	53,731795
2925,000000	53,782376
2924,000000	53,869149
2923,000000	53,984609
2922,000000	54,132253
2921,000000	54,311980
2920,000000	54,507829
2919,000000	54,704239
2918,000000	54,901740
2917,000000	55,102081
2916,000000	55,293444
2915,000000	55,465295
2914,000000	55,623662
2913,000000	55,776699
2912,000000	55,918317
2911,000000	56,040961
2910,000000	56,150781
2909,000000	56,255381
2908,000000	56,349902
2907,000000	56,430028
2906,000000	56,505304
2905,000000	56,584581
2904,000000	56,661324
2903,000000	56,727720
2902,000000	56,790018
2901,000000	56,855615
2900,000000	56,918205
2899,000000	56,970593
2898,000000	57,019203
2897,000000	57,071598
2896,000000	57,122592
2895,000000	57,166553
2894,000000	57,210084
2893,000000	57,258462
2892,000000	57,302928
2891,000000	57,335523
2890,000000	57,363180
2889,000000	57,393411
2888,000000	57,419865
2887,000000	57,435750
2886,000000	57,447434
2885,000000	57,460540
2884,000000	57,466686
2883,000000	57,458385
2882,000000	57,443298
2881,000000	57,429573
2880,000000	57,411019
2879,000000	57,380499
2878,000000	57,343576
2877,000000	57,304903
2876,000000	57,256164
2875,000000	57,192114
2874,000000	57,123736
2873,000000	57,060273
2872,000000	56,992538
2871,000000	56,908528
2870,000000	56,811312
2869,000000	56,706558
2868,000000	56,588047
2867,000000	56,451529
2866,000000	56,309942
2865,000000	56,178875
2864,000000	56,060788
2863,000000	55,957154
2862,000000	55,881638
2861,000000	55,845386
2860,000000	55,842068
2859,000000	55,861639
2858,000000	55,905642
2857,000000	55,974978
2856,000000	56,058040
2855,000000	56,145955
2854,000000	56,245934
2853,000000	56,365070
2852,000000	56,495385
2851,000000	56,628321
2850,000000	56,769281
2849,000000	56,922884
2848,000000	57,078733
2847,000000	57,226489
2846,000000	57,370236
2845,000000	57,513925
2844,000000	57,647832
2843,000000	57,763758
2842,000000	57,869042
2841,000000	57,971234
2840,000000	58,064336
2839,000000	58,144070
2838,000000	58,220287
2837,000000	58,299639
2836,000000	58,372152
2835,000000	58,429957
2834,000000	58,482814
2833,000000	58,540161
2832,000000	58,594185
2831,000000	58,636517
2830,000000	58,675164
2829,000000	58,718890
2828,000000	58,760726
2827,000000	58,792900
2826,000000	58,822713
2825,000000	58,857652
2824,000000	58,890508
2823,000000	58,914673
2822,000000	58,938403
2821,000000	58,968792
2820,000000	58,997294
2819,000000	59,016477
2818,000000	59,034649
2817,000000	59,058931
2816,000000	59,080423
2815,000000	59,091727
2814,000000	59,102217
2813,000000	59,120048
2812,000000	59,136425
2811,000000	59,143281
2810,000000	59,149703
2809,000000	59,164140
2808,000000	59,177613
2807,000000	59,181357
2806,000000	59,183974
2805,000000	59,194476
2804,000000	59,204898
2803,000000	59,206563
2802,000000	59,207116
2801,000000	59,214649
2800,000000	59,221809
2799,000000	59,222059
2798,000000	59,224699
2797,000000	59,237356
2796,000000	59,250362
2795,000000	59,255404
2794,000000	59,262095
2793,000000	59,279244
2792,000000	59,297691
2791,000000	59,308783
2790,000000	59,322247
2789,000000	59,347806
2788,000000	59,376244
2787,000000	59,397045
2786,000000	59,417522
2785,000000	59,446402
2784,000000	59,475576
2783,000000	59,495963
2782,000000	59,515166
2781,000000	59,541295
2780,000000	59,565802
2779,000000	59,580148
2778,000000	59,592762
2777,000000	59,612229
2776,000000	59,630485
2775,000000	59,639933
2774,000000	59,649736
2773,000000	59,667887
2772,000000	59,684564
2771,000000	59,691130
2770,000000	59,697660
2769,000000	59,713405
2768,000000	59,728294
2767,000000	59,732262
2766,000000	59,735036
2765,000000	59,747643
2764,000000	59,762010
2763,000000	59,767985
2762,000000	59,773168
2761,000000	59,786488
2760,000000	59,799335
2759,000000	59,802670
2758,000000	59,805771
2757,000000	59,818518
2756,000000	59,831791
2755,000000	59,834977
2754,000000	59,836062
2753,000000	59,845342
2752,000000	59,855534
2751,000000	59,857350
2750,000000	59,858537
2749,000000	59,868421
2748,000000	59,879648
2747,000000	59,883807
2746,000000	59,888784
2745,000000	59,902149
2744,000000	59,914164
2743,000000	59,915754
2742,000000	59,916505
2741,000000	59,926421
2740,000000	59,937214
2739,000000	59,939890
2738,000000	59,943307
2737,000000	59,956231
2736,000000	59,968770
2735,000000	59,970781
2734,000000	59,971480
2733,000000	59,981719
2732,000000	59,993894
2731,000000	59,998335
2730,000000	60,002205
2729,000000	60,013376
2728,000000	60,023152
2727,000000	60,023874
2726,000000	60,026044
2725,000000	60,038851
2724,000000	60,051801
2723,000000	60,054494
2722,000000	60,056524
2721,000000	60,068314
2720,000000	60,080747
2719,000000	60,083642
2718,000000	60,086029
2717,000000	60,097996
2716,000000	60,110360
2715,000000	60,112837
2714,000000	60,114226
2713,000000	60,124612
2712,000000	60,135157
2711,000000	60,136090
2710,000000	60,136672
2709,000000	60,147229
2708,000000	60,158896
2707,000000	60,161458
2706,000000	60,163506
2705,000000	60,174784
2704,000000	60,186529
2703,000000	60,189361
2702,000000	60,192833
2701,000000	60,206887
2700,000000	60,222084
2699,000000	60,228177
2698,000000	60,234242
2697,000000	60,250042
2696,000000	60,265963
2695,000000	60,271789
2694,000000	60,277025
2693,000000	60,291861
2692,000000	60,306703
2691,000000	60,311169
2690,000000	60,315050
2689,000000	60,329104
2688,000000	60,343824
2687,000000	60,348264
2686,000000	60,351334
2685,000000	60,363165
2684,000000	60,373994
2683,000000	60,373478
2682,000000	60,372110
2681,000000	60,381762
2680,000000	60,393204
2679,000000	60,394840
2678,000000	60,395395
2677,000000	60,405934
2676,000000	60,417390
2675,000000	60,418161
2674,000000	60,416581
2673,000000	60,424017
2672,000000	60,433005
2671,000000	60,433638
2670,000000	60,434275
2669,000000	60,444291
2668,000000	60,454221
2667,000000	60,454093
2666,000000	60,453639
2665,000000	60,463208
2664,000000	60,472919
2663,000000	60,471918
2662,000000	60,470073
2661,000000	60,478968
2660,000000	60,489646
2659,000000	60,490924
2658,000000	60,491228
2657,000000	60,500785
2656,000000	60,510482
2655,000000	60,510243
2654,000000	60,509753
2653,000000	60,519766
2652,000000	60,531112
2651,000000	60,533656
2650,000000	60,536973
2649,000000	60,550661
2648,000000	60,563750
2647,000000	60,565336
2646,000000	60,566217
2645,000000	60,577912
2644,000000	60,590160
2643,000000	60,591249
2642,000000	60,591238
2641,000000	60,601646
2640,000000	60,612494
2639,000000	60,612606
2638,000000	60,612680
2637,000000	60,624731
2636,000000	60,638003
2635,000000	60,639250
2634,000000	60,637671
2633,000000	60,645773
2632,000000	60,654713
2631,000000	60,653027
2630,000000	60,650450
2629,000000	60,659223
2628,000000	60,669747
2627,000000	60,669616
2626,000000	60,667980
2625,000000	60,677004
2624,000000	60,687712
2623,000000	60,688033
2622,000000	60,686888
2621,000000	60,695886
2620,000000	60,705895
2619,000000	60,705423
2618,000000	60,703987
2617,000000	60,713169
2616,000000	60,723027
2615,000000	60,721420
2614,000000	60,718289
2613,000000	60,726390
2612,000000	60,736489
2611,000000	60,735748
2610,000000	60,732645
2609,000000	60,739119
2608,000000	60,746417
2607,000000	60,742880
2606,000000	60,737501
2605,000000	60,741888
2604,000000	60,746777
2603,000000	60,740953
2602,000000	60,734419
2601,000000	60,739174
2600,000000	60,745051
2599,000000	60,739453
2598,000000	60,731908
2597,000000	60,734958
2596,000000	60,739303
2595,000000	60,732751
2594,000000	60,725151
2593,000000	60,729347
2592,000000	60,736196
2591,000000	60,733232
2590,000000	60,730026
2589,000000	60,739344
2588,000000	60,751672
2587,000000	60,753416
2586,000000	60,752899
2585,000000	60,762936
2584,000000	60,775629
2583,000000	60,779063
2582,000000	60,781396
2581,000000	60,793774
2580,000000	60,807014
2579,000000	60,809600
2578,000000	60,810812
2577,000000	60,821993
2576,000000	60,833193
2575,000000	60,832528
2574,000000	60,830136
2573,000000	60,838556
2572,000000	60,848364
2571,000000	60,847267
2570,000000	60,844810
2569,000000	60,853046
2568,000000	60,862278
2567,000000	60,860244
2566,000000	60,856658
2565,000000	60,863536
2564,000000	60,870834
2563,000000	60,866526
2562,000000	60,861362
2561,000000	60,868384
2560,000000	60,877076
2559,000000	60,873807
2558,000000	60,868019
2557,000000	60,873145
2556,000000	60,880198
2555,000000	60,876796
2554,000000	60,872399
2553,000000	60,879263
2552,000000	60,887174
2551,000000	60,883374
2550,000000	60,878154
2549,000000	60,884591
2548,000000	60,892583
2547,000000	60,888897
2546,000000	60,883710
2545,000000	60,890432
2544,000000	60,899017
2543,000000	60,895897
2542,000000	60,891127
2541,000000	60,898531
2540,000000	60,908240
2539,000000	60,906047
2538,000000	60,901138
2537,000000	60,907072
2536,000000	60,914600
2535,000000	60,910294
2534,000000	60,903971
2533,000000	60,909890
2532,000000	60,919074
2531,000000	60,917649
2530,000000	60,913675
2529,000000	60,919629
2528,000000	60,926166
2527,000000	60,921024
2526,000000	60,914851
2525,000000	60,921280
2524,000000	60,929985
2523,000000	60,926744
2522,000000	60,921209
2521,000000	60,927492
2520,000000	60,935851
2519,000000	60,931707
2518,000000	60,924175
2517,000000	60,927509
2516,000000	60,933130
2515,000000	60,927178
2514,000000	60,918389
2513,000000	60,920324
2512,000000	60,924325
2511,000000	60,917596
2510,000000	60,909819
2509,000000	60,914106
2508,000000	60,920089
2507,000000	60,913550
2506,000000	60,904116
2505,000000	60,906137
2504,000000	60,910296
2503,000000	60,902790
2502,000000	60,893622
2501,000000	60,897427
2500,000000	60,904417
2499,000000	60,899359
2498,000000	60,890885
2497,000000	60,893641
2496,000000	60,899131
2495,000000	60,893044
2494,000000	60,884061
2493,000000	60,886501
2492,000000	60,891910
2491,000000	60,886187
2490,000000	60,877971
2489,000000	60,881281
2488,000000	60,887567
2487,000000	60,882872
2486,000000	60,875514
2485,000000	60,878639
2484,000000	60,883132
2483,000000	60,875761
2482,000000	60,866465
2481,000000	60,869594
2480,000000	60,875570
2479,000000	60,869664
2478,000000	60,860677
2477,000000	60,863134
2476,000000	60,868521
2475,000000	60,863219
2474,000000	60,856445
2473,000000	60,861728
2472,000000	60,868445
2471,000000	60,861230
2470,000000	60,849887
2469,000000	60,850695
2468,000000	60,855640
2467,000000	60,849476
2466,000000	60,840035
2465,000000	60,841782
2464,000000	60,846703
2463,000000	60,840859
2462,000000	60,833080
2461,000000	60,837520
2460,000000	60,844675
2459,000000	60,839130
2458,000000	60,829454
2457,000000	60,831154
2456,000000	60,836571
2455,000000	60,831204
2454,000000	60,823033
2453,000000	60,826299
2452,000000	60,832486
2451,000000	60,827192
2450,000000	60,819235
2449,000000	60,823580
2448,000000	60,831544
2447,000000	60,827713
2446,000000	60,820151
2445,000000	60,824067
2444,000000	60,831575
2443,000000	60,827494
2442,000000	60,819488
2441,000000	60,822435
2440,000000	60,828762
2439,000000	60,823954
2438,000000	60,816247
2437,000000	60,820515
2436,000000	60,828342
2435,000000	60,823776
2434,000000	60,814035
2433,000000	60,814414
2432,000000	60,818021
2431,000000	60,810397
2430,000000	60,799157
2429,000000	60,799107
2428,000000	60,802658
2427,000000	60,795294
2426,000000	60,785520
2425,000000	60,789090
2424,000000	60,797627
2423,000000	60,793780
2422,000000	60,783705
2421,000000	60,783879
2420,000000	60,788902
2419,000000	60,783468
2418,000000	60,773338
2417,000000	60,773511
2416,000000	60,777995
2415,000000	60,771704
2414,000000	60,760823
2413,000000	60,760988
2412,000000	60,766771
2411,000000	60,762736
2410,000000	60,753910
2409,000000	60,755119
2408,000000	60,761111
2407,000000	60,757076
2406,000000	60,748353
2405,000000	60,749932
2404,000000	60,756437
2403,000000	60,752288
2402,000000	60,742191
2401,000000	60,741932
2400,000000	60,747705
2399,000000	60,744448
2398,000000	60,735814
2397,000000	60,736410
2396,000000	60,741664
2395,000000	60,735033
2394,000000	60,717720
2393,000000	60,701070
2392,000000	60,675052
2391,000000	60,610593
2390,000000	60,489828
2389,000000	60,299899
2388,000000	60,000860
2387,000000	59,531462
2386,000000	58,837523
2385,000000	57,883550
2384,000000	56,629945
2383,000000	55,040813
2382,000000	53,125781
2381,000000	50,937488
2380,000000	48,546384
2379,000000	46,022436
2378,000000	43,448126
2377,000000	40,913178
2376,000000	38,475287
2375,000000	36,153668
2374,000000	33,959517
2373,000000	31,917101
2372,000000	30,040021
2371,000000	28,320948
2370,000000	26,754019
2369,000000	25,353243
2368,000000	24,132211
2367,000000	23,074926
2366,000000	22,165833
2365,000000	21,421006
2364,000000	20,865576
2363,000000	20,489809
2362,000000	20,255541
2361,000000	20,165395
2360,000000	20,273010
2359,000000	20,616584
2358,000000	21,193538
2357,000000	22,007509
2356,000000	23,115378
2355,000000	24,589241
2354,000000	26,500713
2353,000000	28,967329
2352,000000	32,026226
2351,000000	35,267938
2350,000000	37,653313
2349,000000	38,071005
2348,000000	36,292154
2347,000000	33,299990
2346,000000	30,508303
2345,000000	28,694529
2344,000000	27,756437
2343,000000	27,278227
2342,000000	27,047925
2341,000000	27,019618
2340,000000	27,121592
2339,000000	27,267233
2338,000000	27,459655
2337,000000	27,724240
2336,000000	28,004026
2335,000000	28,198422
2334,000000	28,274239
2333,000000	28,290799
2332,000000	28,355865
2331,000000	28,594670
2330,000000	29,096515
2329,000000	29,827253
2328,000000	30,624457
2327,000000	31,320725
2326,000000	31,860005
2325,000000	32,300342
2324,000000	32,752850
2323,000000	33,342564
2322,000000	34,158750
2321,000000	35,203197
2320,000000	36,408907
2319,000000	37,706529
2318,000000	39,026979
2317,000000	40,252542
2316,000000	41,261669
2315,000000	42,058490
2314,000000	42,787421
2313,000000	43,587514
2312,000000	44,484472
2311,000000	45,444390
2310,000000	46,448946
2309,000000	47,477978
2308,000000	48,485339
2307,000000	49,445741
2306,000000	50,373390
2305,000000	51,258642
2304,000000	52,045215
2303,000000	52,708993
2302,000000	53,300012
2301,000000	53,868849
2300,000000	54,404983
2299,000000	54,889541
2298,000000	55,346443
2297,000000	55,796371
2296,000000	56,217268
2295,000000	56,593664
2294,000000	56,956596
2293,000000	57,329219
2292,000000	57,684966
2291,000000	58,002171
2290,000000	58,307953
2289,000000	58,626184
2288,000000	58,933446
2287,000000	59,206544
2286,000000	59,460420
2285,000000	59,693096
2284,000000	59,849479
2283,000000	59,892094
2282,000000	59,858519
2281,000000	59,805554
2280,000000	59,741350
2279,000000	59,659925
2278,000000	59,589266
2277,000000	59,552947
2276,000000	59,528821
2275,000000	59,493554
2274,000000	59,467616
2273,000000	59,470763
2272,000000	59,478963
2271,000000	59,469644
2270,000000	59,466223
2269,000000	59,491792
2268,000000	59,523938
2267,000000	59,539642
2266,000000	59,560585
2265,000000	59,608272
2264,000000	59,659622
2263,000000	59,691678
2262,000000	59,726379
2261,000000	59,785292
2260,000000	59,844883
2259,000000	59,882059
2258,000000	59,918982
2257,000000	59,977827
2256,000000	60,035428
2255,000000	60,069181
2254,000000	60,102154
2253,000000	60,157210
2252,000000	60,210710
2251,000000	60,238441
2250,000000	60,262407
2249,000000	60,305620
2248,000000	60,345803
2247,000000	60,360458
2246,000000	60,373466
2245,000000	60,408760
2244,000000	60,443007
2243,000000	60,451320
2242,000000	60,456379
2241,000000	60,483480
2240,000000	60,511490
2239,000000	60,515880
2238,000000	60,517300
2237,000000	60,539184
2236,000000	60,560777
2235,000000	60,560116
2234,000000	60,559942
2233,000000	60,583423
2232,000000	60,607235
2231,000000	60,606893
2230,000000	60,604412
2229,000000	60,624038
2228,000000	60,643915
2227,000000	60,640435
2226,000000	60,635529
2225,000000	60,652208
2224,000000	60,667082
2223,000000	60,655937
2222,000000	60,642046
2221,000000	60,650123
2220,000000	60,658131
2219,000000	60,642683
2218,000000	60,627824
2217,000000	60,638041
2216,000000	60,649378
2215,000000	60,636118
2214,000000	60,621446
2213,000000	60,630908
2212,000000	60,641605
2211,000000	60,628317
2210,000000	60,614360
2209,000000	60,625084
2208,000000	60,636221
2207,000000	60,621744
2206,000000	60,606010
2205,000000	60,616742
2204,000000	60,630607
2203,000000	60,619556
2202,000000	60,605276
2201,000000	60,614489
2200,000000	60,624323
2199,000000	60,607777
2198,000000	60,588801
2197,000000	60,597212
2196,000000	60,612379
2195,000000	60,605241
2194,000000	60,594065
2193,000000	60,603690
2192,000000	60,613414
2191,000000	60,598615
2190,000000	60,582304
2189,000000	60,590565
2188,000000	60,601079
2187,000000	60,587885
2186,000000	60,574135
2185,000000	60,586078
2184,000000	60,599438
2183,000000	60,586325
2182,000000	60,569943
2181,000000	60,579052
2180,000000	60,591285
2179,000000	60,578375
2178,000000	60,561516
2177,000000	60,567719
2176,000000	60,574796
2175,000000	60,555933
2174,000000	60,534074
2173,000000	60,536392
2172,000000	60,539824
2171,000000	60,517807
2170,000000	60,496064
2169,000000	60,504602
2168,000000	60,519702
2167,000000	60,509697
2166,000000	60,494077
2165,000000	60,499669
2164,000000	60,504639
2163,000000	60,483481
2162,000000	60,462495
2161,000000	60,471394
2160,000000	60,484990
2159,000000	60,471537
2158,000000	60,453287
2157,000000	60,460456
2156,000000	60,470170
2155,000000	60,452367
2154,000000	60,430080
2153,000000	60,434722
2152,000000	60,444491
2151,000000	60,428809
2150,000000	60,408522
2149,000000	60,412647
2148,000000	60,418987
2147,000000	60,399110
2146,000000	60,377732
2145,000000	60,385943
2144,000000	60,399407
2143,000000	60,383988
2142,000000	60,360089
2141,000000	60,359180
2140,000000	60,360882
2139,000000	60,334922
2138,000000	60,304305
2137,000000	60,303940
2136,000000	60,317268
2135,000000	60,313622
2134,000000	60,307111
2133,000000	60,319883
2132,000000	60,329108
2131,000000	60,309993
2130,000000	60,288630
2129,000000	60,294416
2128,000000	60,302876
2127,000000	60,284040
2126,000000	60,261496
2125,000000	60,265876
2124,000000	60,274492
2123,000000	60,257628
2122,000000	60,237850
2121,000000	60,244685
2120,000000	60,254809
2119,000000	60,236748
2118,000000	60,210249
2117,000000	60,203430
2116,000000	60,199066
2115,000000	60,178352
2114,000000	60,169713
2113,000000	60,194832
2112,000000	60,217516
2111,000000	60,204048
2110,000000	60,184035
2109,000000	60,192127
2108,000000	60,203692
2107,000000	60,188017
2106,000000	60,171145
2105,000000	60,183129
2104,000000	60,196074
2103,000000	60,178962
2102,000000	60,159500
2101,000000	60,169746
2100,000000	60,182597
2099,000000	60,166663
2098,000000	60,148614
2097,000000	60,159308
2096,000000	60,171666
2095,000000	60,154748
2094,000000	60,132062
2093,000000	60,125453
2092,000000	60,103964
2091,000000	60,052004
2090,000000	60,023453
2089,000000	60,057350
2088,000000	60,105684
2087,000000	60,113049
2086,000000	60,105073
2085,000000	60,123336
2084,000000	60,141496
2083,000000	60,123331
2082,000000	60,099800
2081,000000	60,107708
2080,000000	60,114550
2079,000000	60,084769
2078,000000	60,056749
2077,000000	60,073345
2076,000000	60,098455
2075,000000	60,086648
2074,000000	60,069675
2073,000000	60,090543
2072,000000	60,116219
2071,000000	60,103555
2070,000000	60,082552
2069,000000	60,082571
2068,000000	60,048233
2067,000000	59,934467
2066,000000	59,821814
2065,000000	59,821620
2064,000000	59,916349
2063,000000	59,999733
2062,000000	60,033612
2061,000000	60,056764
2060,000000	60,080103
2059,000000	60,080949
2058,000000	60,073831
2057,000000	60,089795
2056,000000	60,108897
2055,000000	60,097342
2054,000000	60,079140
2053,000000	60,092109
2052,000000	60,111785
2051,000000	60,099283
2050,000000	60,079074
2049,000000	60,089579
2048,000000	60,103510
2047,000000	60,080743
2046,000000	60,046419
2045,000000	60,032611
2044,000000	60,001042
2043,000000	59,919390
2042,000000	59,855482
2041,000000	59,890377
2040,000000	59,987287
2039,000000	60,049121
2038,000000	60,062609
2037,000000	60,079419
2036,000000	60,101276
2035,000000	60,092317
2034,000000	60,070514
2033,000000	60,079296
2032,000000	60,098524
2031,000000	60,081460
2030,000000	60,048006
2029,000000	60,047312
2028,000000	60,062903
2027,000000	60,049496
2026,000000	60,024940
2025,000000	60,032019
2024,000000	60,049601
2023,000000	60,035161
2022,000000	60,004547
2021,000000	59,971760
2020,000000	59,872105
2019,000000	59,669136
2018,000000	59,486437
2017,000000	59,493219
2016,000000	59,681735
2015,000000	59,885505
2014,000000	59,999044
2013,000000	60,048949
2012,000000	60,069527
2011,000000	60,048650
2010,000000	60,005272
2009,000000	59,995583
2008,000000	60,020927
2007,000000	60,029882
2006,000000	60,018811
2005,000000	60,031815
2004,000000	60,061482
2003,000000	60,053636
2002,000000	60,011464
2001,000000	59,991769
2000,000000	59,997706
1999,000000	59,984885
1998,000000	59,969071
1997,000000	59,994877
1996,000000	59,981223
1995,000000	59,754131
1994,000000	59,306538
1993,000000	58,904727
1992,000000	58,828645
1991,000000	59,071253
1990,000000	59,389905
1989,000000	59,598614
1988,000000	59,708603
1987,000000	59,807020
1986,000000	59,908241
1985,000000	59,966779
1984,000000	59,969186
1983,000000	59,952601
1982,000000	59,948148
1981,000000	59,949539
1980,000000	59,941850
1979,000000	59,929310
1978,000000	59,922517
1977,000000	59,918526
1976,000000	59,910279
1975,000000	59,902096
1974,000000	59,901882
1973,000000	59,907838
1972,000000	59,900652
1971,000000	59,829712
1970,000000	59,627170
1969,000000	59,300463
1968,000000	59,014486
1967,000000	58,986436
1966,000000	59,247300
1965,000000	59,580031
1964,000000	59,757457
1963,000000	59,768299
1962,000000	59,740025
1961,000000	59,733162
1960,000000	59,721568
1959,000000	59,702779
1958,000000	59,698621
1957,000000	59,686865
1956,000000	59,645460
1955,000000	59,625964
1954,000000	59,676848
1953,000000	59,745078
1952,000000	59,757375
1951,000000	59,735655
1950,000000	59,723394
1949,000000	59,678576
1948,000000	59,557856
1947,000000	59,396578
1946,000000	59,168777
1945,000000	58,728530
1944,000000	58,111524
1943,000000	57,739397
1942,000000	58,011601
1941,000000	58,758446
1940,000000	59,403978
1939,000000	59,645820
1938,000000	59,665553
1937,000000	59,687762
1936,000000	59,690659
1935,000000	59,621041
1934,000000	59,569575
1933,000000	59,598591
1932,000000	59,630464
1931,000000	59,613828
1930,000000	59,609928
1929,000000	59,645027
1928,000000	59,645925
1927,000000	59,542988
1926,000000	59,280139
1925,000000	58,807297
1924,000000	58,274755
1923,000000	58,069233
1922,000000	58,296840
1921,000000	58,396266
1920,000000	57,788062
1919,000000	56,845829
1918,000000	56,615983
1917,000000	57,466772
1916,000000	58,631392
1915,000000	59,268889
1914,000000	59,364180
1913,000000	59,288531
1912,000000	59,090558
1911,000000	58,707325
1910,000000	58,408486
1909,000000	58,493347
1908,000000	58,809810
1907,000000	59,018985
1906,000000	59,096036
1905,000000	59,200359
1904,000000	59,290121
1903,000000	59,249402
1902,000000	59,185564
1901,000000	59,246426
1900,000000	59,318791
1899,000000	59,212099
1898,000000	58,962026
1897,000000	58,710519
1896,000000	58,509379
1895,000000	58,436943
1894,000000	58,591300
1893,000000	58,735194
1892,000000	58,375585
1891,000000	57,524592
1890,000000	56,963726
1889,000000	57,304439
1888,000000	58,165659
1887,000000	58,747324
1886,000000	58,868208
1885,000000	58,907602
1884,000000	59,024064
1883,000000	59,058583
1882,000000	59,012524
1881,000000	59,051502
1880,000000	59,125417
1879,000000	59,073171
1878,000000	58,985013
1877,000000	59,039897
1876,000000	59,138380
1875,000000	59,096493
1874,000000	58,965908
1873,000000	58,696025
1872,000000	57,824350
1871,000000	56,140170
1870,000000	54,451685
1869,000000	53,950819
1868,000000	54,870084
1867,000000	56,352139
1866,000000	57,575604
1865,000000	58,377568
1864,000000	58,818726
1863,000000	58,880571
1862,000000	58,725575
1861,000000	58,676044
1860,000000	58,767433
1859,000000	58,772636
1858,000000	58,696763
1857,000000	58,771655
1856,000000	58,951899
1855,000000	58,953339
1854,000000	58,806105
1853,000000	58,810551
1852,000000	58,910424
1851,000000	58,729518
1850,000000	58,270322
1849,000000	57,882756
1848,000000	57,387121
1847,000000	56,029406
1846,000000	53,768127
1845,000000	51,958336
1844,000000	52,100492
1843,000000	54,166843
1842,000000	56,654430
1841,000000	58,153231
1840,000000	58,444908
1839,000000	58,194027
1838,000000	58,013460
1837,000000	58,030285
1836,000000	58,132778
1835,000000	58,248314
1834,000000	58,186535
1833,000000	57,464364
1832,000000	55,831124
1831,000000	54,041130
1830,000000	53,442171
1829,000000	54,383156
1828,000000	55,570547
1827,000000	55,666610
1826,000000	55,009666
1825,000000	54,997934
1824,000000	56,084707
1823,000000	57,353407
1822,000000	57,989341
1821,000000	58,133706
1820,000000	58,160519
1819,000000	58,038104
1818,000000	57,777754
1817,000000	57,727882
1816,000000	57,993393
1815,000000	58,114454
1814,000000	57,704508
1813,000000	56,981074
1812,000000	56,386597
1811,000000	56,121949
1810,000000	56,236991
1809,000000	56,726764
1808,000000	57,324254
1807,000000	57,620758
1806,000000	57,528145
1805,000000	57,226562
1804,000000	56,650973
1803,000000	55,619848
1802,000000	54,497377
1801,000000	54,047446
1800,000000	54,468643
1799,000000	55,200971
1798,000000	55,783797
1797,000000	56,115131
1796,000000	55,792722
1795,000000	54,189242
1794,000000	51,685479
1793,000000	49,925593
1792,000000	50,241289
1791,000000	52,293931
1790,000000	54,696761
1789,000000	56,360446
1788,000000	56,851966
1787,000000	56,258450
1786,000000	55,303745
1785,000000	54,958188
1784,000000	55,344200
1783,000000	55,584569
1782,000000	55,168619
1781,000000	54,764803
1780,000000	55,085409
1779,000000	55,750445
1778,000000	55,972119
1777,000000	55,573194
1776,000000	54,518457
1775,000000	52,341577
1774,000000	49,221098
1773,000000	46,896460
1772,000000	47,087283
1771,000000	49,217853
1770,000000	51,109261
1769,000000	51,812960
1768,000000	52,434327
1767,000000	53,950430
1766,000000	55,523423
1765,000000	55,642447
1764,000000	54,097960
1763,000000	52,222955
1762,000000	51,520881
1761,000000	52,341702
1760,000000	53,648391
1759,000000	54,025211
1758,000000	53,258702
1757,000000	52,691028
1756,000000	53,402655
1755,000000	54,449760
1754,000000	53,853799
1753,000000	51,282949
1752,000000	48,619867
1751,000000	47,623134
1750,000000	48,189798
1749,000000	49,289075
1748,000000	50,479577
1747,000000	51,702891
1746,000000	52,519682
1745,000000	52,573521
1744,000000	52,226639
1743,000000	51,854083
1742,000000	51,091625
1741,000000	49,808346
1740,000000	49,158455
1739,000000	50,196952
1738,000000	51,543781
1737,000000	50,284348
1736,000000	45,792833
1735,000000	41,321878
1734,000000	40,649860
1733,000000	43,934601
1732,000000	48,110274
1731,000000	50,708856
1730,000000	51,909614
1729,000000	52,939227
1728,000000	54,010996
1727,000000	54,540289
1726,000000	54,384257
1725,000000	54,009302
1724,000000	53,831956
1723,000000	53,819863
1722,000000	53,431096
1721,000000	51,677591
1720,000000	48,015262
1719,000000	43,618891
1718,000000	40,976777
1717,000000	41,496443
1716,000000	44,114153
1715,000000	46,902656
1714,000000	49,249341
1713,000000	51,447946
1712,000000	53,108831
1711,000000	53,479169
1710,000000	52,865771
1709,000000	52,128493
1708,000000	51,108709
1707,000000	49,305857
1706,000000	47,776273
1705,000000	48,021259
1704,000000	48,790103
1703,000000	46,730316
1702,000000	41,367888
1701,000000	36,971906
1700,000000	37,332604
1699,000000	40,685530
1698,000000	42,410607
1697,000000	41,447156
1696,000000	41,185902
1695,000000	44,187100
1694,000000	48,880085
1693,000000	52,097231
1692,000000	52,730173
1691,000000	51,993935
1690,000000	51,333530
1689,000000	51,020157
1688,000000	49,965033
1687,000000	46,718339
1686,000000	41,579828
1685,000000	37,571540
1684,000000	37,887263
1683,000000	42,234558
1682,000000	47,083125
1681,000000	49,850040
1680,000000	50,977675
1679,000000	51,463922
1678,000000	50,631086
1677,000000	47,929941
1676,000000	45,259905
1675,000000	45,145834
1674,000000	47,259731
1673,000000	48,671296
1672,000000	47,606700
1671,000000	45,353755
1670,000000	44,303983
1669,000000	45,464774
1668,000000	48,131874
1667,000000	50,805360
1666,000000	51,960049
1665,000000	50,932290
1664,000000	48,795075
1663,000000	47,695266
1662,000000	48,689981
1661,000000	50,726412
1660,000000	52,145718
1659,000000	52,490129
1658,000000	52,025436
1657,000000	50,014835
1656,000000	45,083319
1655,000000	37,821302
1654,000000	31,978571
1653,000000	31,619396
1652,000000	36,908778
1651,000000	43,564622
1650,000000	46,782015
1649,000000	45,453130
1648,000000	42,323777
1647,000000	40,803140
1646,000000	42,221553
1645,000000	45,626089
1644,000000	49,094454
1643,000000	51,165790
1642,000000	51,619601
1641,000000	51,235163
1640,000000	50,492665
1639,000000	48,713176
1638,000000	45,197131
1637,000000	41,097245
1636,000000	39,126738
1635,000000	40,894245
1634,000000	45,138129
1633,000000	49,102746
1632,000000	51,045182
1631,000000	51,022871
1630,000000	49,972692
1629,000000	48,860788
1628,000000	48,333696
1627,000000	48,311724
1626,000000	47,954130
1625,000000	46,721281
1624,000000	45,427445
1623,000000	45,553691
1622,000000	47,360973
1621,000000	49,170878
1620,000000	48,881876
1619,000000	46,082847
1618,000000	42,570123
1617,000000	40,909909
1616,000000	42,297930
1615,000000	45,598632
1614,000000	48,476415
1613,000000	49,524600
1612,000000	49,171814
1611,000000	48,603977
1610,000000	48,327525
1609,000000	48,170285
1608,000000	48,100619
1607,000000	48,317287
1606,000000	48,686514
1605,000000	48,796895
1604,000000	48,612733
1603,000000	48,537022
1602,000000	48,758397
1601,000000	49,017361
1600,000000	49,110732
1599,000000	49,148885
1598,000000	49,190132
1597,000000	49,071242
1596,000000	48,791007
1595,000000	48,659249
1594,000000	48,841988
1593,000000	49,089065
1592,000000	49,139071
1591,000000	49,099862
1590,000000	49,185037
1589,000000	49,336870
1588,000000	49,375842
1587,000000	49,331982
1586,000000	49,351244
1585,000000	49,398946
1584,000000	49,326816
1583,000000	49,182972
1582,000000	49,187859
1581,000000	49,239576
1580,000000	48,608753
1579,000000	46,437720
1578,000000	42,918367
1577,000000	39,869553
1576,000000	39,556748
1575,000000	42,419378
1574,000000	46,171912
1573,000000	47,754802
1572,000000	46,265005
1571,000000	43,611285
1570,000000	42,324230
1569,000000	43,196956
1568,000000	45,070725
1567,000000	46,411473
1566,000000	46,709296
1565,000000	46,523993
1564,000000	46,273442
1563,000000	45,037522
1562,000000	41,160373
1561,000000	34,703440
1560,000000	28,843707
1559,000000	27,468284
1558,000000	31,069338
1557,000000	36,202553
1556,000000	39,491451
1555,000000	40,928791
1554,000000	42,385761
1553,000000	44,272665
1552,000000	45,375289
1551,000000	45,374159
1550,000000	45,448335
1549,000000	46,205485
1548,000000	46,588673
1547,000000	45,512232
1546,000000	43,384531
1545,000000	41,255356
1544,000000	39,275788
1543,000000	36,826553
1542,000000	33,834459
1541,000000	31,419208
1540,000000	31,310365
1539,000000	34,490443
1538,000000	39,844038
1537,000000	44,278265
1536,000000	45,200079
1535,000000	43,225421
1534,000000	41,542670
1533,000000	42,339093
1532,000000	44,712074
1531,000000	46,459605
1530,000000	46,641688
1529,000000	45,704268
1528,000000	44,238204
1527,000000	42,797486
1526,000000	42,030546
1525,000000	41,752443
1524,000000	40,626119
1523,000000	38,068967
1522,000000	35,856926
1521,000000	36,213611
1520,000000	38,692398
1519,000000	40,653388
1518,000000	40,880790
1517,000000	40,890137
1516,000000	42,197502
1515,000000	44,045304
1514,000000	44,823055
1513,000000	44,455674
1512,000000	43,939204
1511,000000	43,252205
1510,000000	41,149221
1509,000000	37,151818
1508,000000	32,860356
1507,000000	30,928731
1506,000000	32,880472
1505,000000	37,799899
1504,000000	42,950840
1503,000000	45,854591
1502,000000	46,002148
1501,000000	44,547978
1500,000000	42,621662
1499,000000	40,506278
1498,000000	38,476058
1497,000000	37,474051
1496,000000	38,303466
1495,000000	40,420819
1494,000000	42,166597
1493,000000	42,231122
1492,000000	40,750106
1491,000000	39,051164
1490,000000	38,477300
1489,000000	39,347639
1488,000000	40,995472
1487,000000	42,710951
1486,000000	44,348603
1485,000000	45,835123
1484,000000	46,668575
1483,000000	46,558141
1482,000000	46,157049
1481,000000	46,298364
1480,000000	46,670362
1479,000000	46,228179
1478,000000	44,816663
1477,000000	43,291266
1476,000000	41,965002
1475,000000	40,219278
1474,000000	38,135128
1473,000000	37,219366
1472,000000	38,695718
1471,000000	41,838308
1470,000000	44,779245
1469,000000	46,259735
1468,000000	46,028365
1467,000000	44,435548
1466,000000	42,512180
1465,000000	41,762286
1464,000000	42,817322
1463,000000	44,596022
1462,000000	45,346299
1461,000000	44,160431
1460,000000	41,092715
1459,000000	36,857812
1458,000000	33,156183
1457,000000	32,278779
1456,000000	34,978878
1455,000000	39,252392
1454,000000	42,322041
1453,000000	43,429767
1452,000000	43,665019
1451,000000	43,685711
1450,000000	43,192846
1449,000000	42,358606
1448,000000	42,192328
1447,000000	43,122301
1446,000000	44,383447
1445,000000	45,146862
1444,000000	45,405451
1443,000000	45,523601
1442,000000	45,610098
1441,000000	45,465882
1440,000000	44,581735
1439,000000	42,426004
1438,000000	39,508748
1437,000000	37,784733
1436,000000	38,834483
1435,000000	41,787017
1434,000000	44,118936
1433,000000	44,542090
1432,000000	43,915727
1431,000000	43,443971
1430,000000	43,380295
1429,000000	43,655119
1428,000000	44,326383
1427,000000	44,919363
1426,000000	44,639147
1425,000000	43,722689
1424,000000	43,340307
1423,000000	43,547634
1422,000000	42,790740
1421,000000	40,314285
1420,000000	37,812426
1419,000000	37,500756
1418,000000	39,402092
1417,000000	41,773379
1416,000000	43,392231
1415,000000	44,278568
1414,000000	44,655696
1413,000000	44,535961
1412,000000	44,210668
1411,000000	44,127371
1410,000000	44,240009
1409,000000	44,118925
1408,000000	43,613553
1407,000000	42,898490
1406,000000	42,164824
1405,000000	41,718997
1404,000000	41,955881
1403,000000	42,646083
1402,000000	42,773017
1401,000000	41,784164
1400,000000	40,552726
1399,000000	40,222636
1398,000000	40,578220
1397,000000	40,519023
1396,000000	39,872940
1395,000000	39,673857
1394,000000	40,600118
1393,000000	42,128197
1392,000000	43,309532
1391,000000	43,630136
1390,000000	43,008668
1389,000000	41,748835
1388,000000	40,696387
1387,000000	40,720327
1386,000000	41,739952
1385,000000	42,799475
1384,000000	43,255528
1383,000000	43,327916
1382,000000	43,396522
1381,000000	43,403503
1380,000000	43,238865
1379,000000	43,084643
1378,000000	42,999702
1377,000000	42,643251
1376,000000	41,847364
1375,000000	41,108761
1374,000000	41,077952
1373,000000	41,762653
1372,000000	42,552735
1371,000000	42,929423
1370,000000	42,884724
1369,000000	42,750635
1368,000000	42,801811
1367,000000	42,955655
1366,000000	42,806269
1365,000000	42,076204
1364,000000	41,063094
1363,000000	40,462826
1362,000000	40,663971
1361,000000	41,405070
1360,000000	42,165784
1359,000000	42,657897
1358,000000	42,865243
1357,000000	42,852125
1356,000000	42,728495
1355,000000	42,653742
1354,000000	42,700899
1353,000000	42,775818
1352,000000	42,764389
1351,000000	42,680427
1350,000000	42,607836
1349,000000	42,580508
1348,000000	42,580055
1347,000000	42,587759
1346,000000	42,589340
1345,000000	42,562217
1344,000000	42,456652
1343,000000	42,168999
1342,000000	41,615946
1341,000000	40,919979
1340,000000	40,433959
1339,000000	40,436516
1338,000000	40,839993
1337,000000	41,332252
1336,000000	41,724322
1335,000000	42,016068
1334,000000	42,204085
1333,000000	42,240473
1332,000000	42,171834
1331,000000	42,122288
1330,000000	42,120968
1329,000000	42,093331
1328,000000	42,026751
1327,000000	41,986709
1326,000000	41,975550
1325,000000	41,924673
1324,000000	41,827567
1323,000000	41,730849
1322,000000	41,603165
1321,000000	41,371367
1320,000000	41,095087
1319,000000	40,944276
1318,000000	40,972885
1317,000000	41,054360
1316,000000	41,062474
1315,000000	41,001243
1314,000000	40,932995
1313,000000	40,896363
1312,000000	40,913435
1311,000000	40,974946
1310,000000	41,007691
1309,000000	40,949867
1308,000000	40,849432
1307,000000	40,797765
1306,000000	40,787916
1305,000000	40,743738
1304,000000	40,662349
1303,000000	40,606089
1302,000000	40,576702
1301,000000	40,515857
1300,000000	40,422232
1299,000000	40,348495
1298,000000	40,295832
1297,000000	40,221356
1296,000000	40,137822
1295,000000	40,093319
1294,000000	40,066940
1293,000000	39,994339
1292,000000	39,880750
1291,000000	39,782511
1290,000000	39,696928
1289,000000	39,584896
1288,000000	39,476550
1287,000000	39,437321
1286,000000	39,442620
1285,000000	39,406461
1284,000000	39,318045
1283,000000	39,238531
1282,000000	39,176927
1281,000000	39,086554
1280,000000	38,973323
1279,000000	38,889886
1278,000000	38,830072
1277,000000	38,736725
1276,000000	38,606920
1275,000000	38,481659
1274,000000	38,348470
1273,000000	38,162150
1272,000000	37,951956
1271,000000	37,793199
1270,000000	37,681195
1269,000000	37,540669
1268,000000	37,352749
1267,000000	37,167892
1266,000000	36,998664
1265,000000	36,808235
1264,000000	36,600138
1263,000000	36,422189
1262,000000	36,284286
1261,000000	36,168301
1260,000000	36,104099
1259,000000	36,134987
1258,000000	36,219705
1257,000000	36,269832
1256,000000	36,272875
1255,000000	36,281451
1254,000000	36,296496
1253,000000	36,266609
1252,000000	36,193909
1251,000000	36,132290
1250,000000	36,085886
1249,000000	36,008807
1248,000000	35,902003
1247,000000	35,811233
1246,000000	35,735608
1245,000000	35,633790
1244,000000	35,516103
1243,000000	35,432566
1242,000000	35,375138
1241,000000	35,288337
1240,000000	35,171147
1239,000000	35,074282
1238,000000	35,000019
1237,000000	34,902142
1236,000000	34,780410
1235,000000	34,681225
1234,000000	34,604626
1233,000000	34,504483
1232,000000	34,379857
1231,000000	34,275883
1230,000000	34,193577
1229,000000	34,087601
1228,000000	33,954317
1227,000000	33,835575
1226,000000	33,736450
1225,000000	33,622087
1224,000000	33,494740
1223,000000	33,389527
1222,000000	33,297208
1221,000000	33,173746
1220,000000	33,024195
1219,000000	32,895004
1218,000000	32,787756
1217,000000	32,661283
1216,000000	32,514153
1215,000000	32,383749
1214,000000	32,268979
1213,000000	32,136410
1212,000000	31,997170
1211,000000	31,895281
1210,000000	31,823694
1209,000000	31,733746
1208,000000	31,622638
1207,000000	31,531360
1206,000000	31,459965
1205,000000	31,368066
1204,000000	31,256013
1203,000000	31,163922
1202,000000	31,091742
1201,000000	30,999917
1200,000000	30,888633
1199,000000	30,797458
1198,000000	30,727392
1197,000000	30,639753
1196,000000	30,531887
1195,000000	30,438068
1194,000000	30,357163
1193,000000	30,254586
1192,000000	30,133799
1191,000000	30,031301
1190,000000	29,942945
1189,000000	29,829912
1188,000000	29,695690
1187,000000	29,581930
1186,000000	29,488819
1185,000000	29,372872
1184,000000	29,223280
1183,000000	29,070563
1182,000000	28,922881
1181,000000	28,765954
1180,000000	28,621778
1179,000000	28,531986
1178,000000	28,481926
1177,000000	28,413620
1176,000000	28,314125
1175,000000	28,221272
1174,000000	28,144615
1173,000000	28,053040
1172,000000	27,942131
1171,000000	27,841875
1170,000000	27,753525
1169,000000	27,646577
1168,000000	27,521868
1167,000000	27,412323
1166,000000	27,319243
1165,000000	27,211885
1164,000000	27,090423
1163,000000	26,985591
1162,000000	26,896477
1161,000000	26,792250
1160,000000	26,675048
1159,000000	26,577652
1158,000000	26,499771
1157,000000	26,409085
1156,000000	26,304612
1155,000000	26,216010
1154,000000	26,142115
1153,000000	26,052580
1152,000000	25,949278
1151,000000	25,863795
1150,000000	25,794761
1149,000000	25,709707
1148,000000	25,607702
1147,000000	25,519685
1146,000000	25,447383
1145,000000	25,362954
1144,000000	25,267587
1143,000000	25,190746
1142,000000	25,131640
1141,000000	25,060659
1140,000000	24,976807
1139,000000	24,905618
1138,000000	24,842951
1137,000000	24,759597
1136,000000	24,659419
1135,000000	24,573722
1134,000000	24,501031
1133,000000	24,410392
1132,000000	24,302430
1131,000000	24,207354
1130,000000	24,125629
1129,000000	24,028851
1128,000000	23,918037
1127,000000	23,822134
1126,000000	23,739918
1125,000000	23,641632
1124,000000	23,527067
1123,000000	23,425307
1122,000000	23,337261
1121,000000	23,235762
1120,000000	23,120791
1119,000000	23,019137
1118,000000	22,929429
1117,000000	22,824383
1116,000000	22,705968
1115,000000	22,603304
1114,000000	22,516387
1113,000000	22,417265
1112,000000	22,306059
1111,000000	22,210337
1110,000000	22,130042
1109,000000	22,037454
1108,000000	21,933006
1107,000000	21,845545
1106,000000	21,777820
1105,000000	21,703564
1104,000000	21,619715
1103,000000	21,548495
1102,000000	21,488132
1101,000000	21,413613
1100,000000	21,326467
1099,000000	21,252590
1098,000000	21,190834
1097,000000	21,115367
1096,000000	21,027330
1095,000000	20,953750
1094,000000	20,894846
1093,000000	20,824822
1092,000000	20,743270
1091,000000	20,675698
1090,000000	20,622364
1089,000000	20,557840
1088,000000	20,481471
1087,000000	20,418040
1086,000000	20,368034
1085,000000	20,306133
1084,000000	20,230505
1083,000000	20,164637
1082,000000	20,111068
1081,000000	20,050019
1080,000000	19,984751
1079,000000	19,938993
1078,000000	19,910953
1077,000000	19,876172
1076,000000	19,835809
1075,000000	19,814498
1074,000000	19,810666
1073,000000	19,797589
1072,000000	19,772815
1071,000000	19,759897
1070,000000	19,760275
1069,000000	19,751484
1068,000000	19,732827
1067,000000	19,727267
1066,000000	19,735687
1065,000000	19,736034
1064,000000	19,727522
1063,000000	19,731461
1062,000000	19,747052
1061,000000	19,751094
1060,000000	19,742000
1059,000000	19,739076
1058,000000	19,737335
1057,000000	19,705308
1056,000000	19,631819
1055,000000	19,532396
1054,000000	19,414459
1053,000000	19,278824
1052,000000	19,157206
1051,000000	19,100788
1050,000000	19,129156
1049,000000	19,224126
1048,000000	19,369515
1047,000000	19,556029
1046,000000	19,749550
1045,000000	19,905758
1044,000000	20,017963
1043,000000	20,112682
1042,000000	20,197929
1041,000000	20,258848
1040,000000	20,299657
1039,000000	20,345550
1038,000000	20,400416
1037,000000	20,444654
1036,000000	20,477216
1035,000000	20,517764
1034,000000	20,566945
1033,000000	20,604990
1032,000000	20,631887
1031,000000	20,667891
1030,000000	20,714059
1029,000000	20,750626
1028,000000	20,776716
1027,000000	20,811230
1026,000000	20,854833
1025,000000	20,889198
1024,000000	20,915272
1023,000000	20,953025
1022,000000	21,002773
1021,000000	21,045366
1020,000000	21,080853
1019,000000	21,129450
1018,000000	21,192099
1017,000000	21,249764
1016,000000	21,301046
1015,000000	21,364119
1014,000000	21,439270
1013,000000	21,507759
1012,000000	21,568337
1011,000000	21,638316
1010,000000	21,717177
1009,000000	21,785649
1008,000000	21,842127
1007,000000	21,903275
1006,000000	21,968667
1005,000000	22,020059
1004,000000	22,057338
1003,000000	22,098515
1002,000000	22,144096
1001,000000	22,175978
1000,000000	22,193549
999,000000	22,214237
998,000000	22,238675
997,000000	22,249740
996,000000	22,247216
995,000000	22,249033
994,000000	22,255963
993,000000	22,250926
992,000000	22,232986
991,000000	22,219173
990,000000	22,210497
989,000000	22,190757
988,000000	22,159380
987,000000	22,132944
986,000000	22,112296
985,000000	22,081831
984,000000	22,041559
983,000000	22,007462
982,000000	21,979623
981,000000	21,941990
980,000000	21,895033
979,000000	21,854910
978,000000	21,821195
977,000000	21,776841
976,000000	21,721727
975,000000	21,672828
974,000000	21,631367
973,000000	21,581441
972,000000	21,522398
971,000000	21,469967
970,000000	21,424437
969,000000	21,369901
968,000000	21,305726
967,000000	21,247950
966,000000	21,197230
965,000000	21,138048
964,000000	21,069695
963,000000	21,008048
962,000000	20,954155
961,000000	20,892729
960,000000	20,822698
959,000000	20,759196
958,000000	20,703492
957,000000	20,640986
956,000000	20,570854
955,000000	20,507406
954,000000	20,451306
953,000000	20,388106
952,000000	20,317716
951,000000	20,255191
950,000000	20,201899
949,000000	20,143732
948,000000	20,079753
947,000000	20,023288
946,000000	19,974156
945,000000	19,918205
944,000000	19,855286
943,000000	19,799525
942,000000	19,750588
941,000000	19,693797
940,000000	19,628662
939,000000	19,569947
938,000000	19,518522
937,000000	19,460344
936,000000	19,394441
935,000000	19,334669
934,000000	19,282000
933,000000	19,223054
932,000000	19,157197
931,000000	19,097715
930,000000	19,045301
929,000000	18,986892
928,000000	18,922357
927,000000	18,864677
926,000000	18,813620
925,000000	18,755130
924,000000	18,688727
923,000000	18,628080
922,000000	18,574102
921,000000	18,513327
920,000000	18,444373
919,000000	18,379845
918,000000	18,320445
917,000000	18,253353
916,000000	18,177060
915,000000	18,103233
914,000000	18,032387
913,000000	17,953515
912,000000	17,868215
911,000000	17,790970
910,000000	17,723641
909,000000	17,654518
908,000000	17,582818
907,000000	17,519878
906,000000	17,465235
905,000000	17,406009
904,000000	17,341059
903,000000	17,281722
902,000000	17,228352
901,000000	17,169305
900,000000	17,104787
899,000000	17,047324
898,000000	16,998399
897,000000	16,946813
896,000000	16,891255
895,000000	16,841187
894,000000	16,795054
893,000000	16,740486
892,000000	16,676858
891,000000	16,615698
890,000000	16,557588
889,000000	16,491310
888,000000	16,415481
887,000000	16,339733
886,000000	16,263757
885,000000	16,177284
884,000000	16,081248
883,000000	15,987872
882,000000	15,899262
881,000000	15,807247
880,000000	15,714716
879,000000	15,635951
878,000000	15,575287
877,000000	15,525502
876,000000	15,486929
875,000000	15,468023
874,000000	15,466444
873,000000	15,469418
872,000000	15,474090
871,000000	15,487177
870,000000	15,505987
869,000000	15,518559
868,000000	15,522996
867,000000	15,527487
866,000000	15,531442
865,000000	15,525637
864,000000	15,510354
863,000000	15,495072
862,000000	15,479941
861,000000	15,456667
860,000000	15,426373
859,000000	15,398701
858,000000	15,373373
857,000000	15,340974
856,000000	15,301612
855,000000	15,264919
854,000000	15,232163
853,000000	15,195903
852,000000	15,157122
851,000000	15,125086
850,000000	15,100526
849,000000	15,075248
848,000000	15,048211
847,000000	15,025503
846,000000	15,005432
845,000000	14,979763
844,000000	14,949176
843,000000	14,921580
842,000000	14,896189
841,000000	14,864811
840,000000	14,827556
839,000000	14,791511
838,000000	14,755061
837,000000	14,708722
836,000000	14,650390
835,000000	14,585056
834,000000	14,510065
833,000000	14,416729
832,000000	14,305121
831,000000	14,183840
830,000000	14,056079
829,000000	13,920172
828,000000	13,783377
827,000000	13,661394
826,000000	13,565512
825,000000	13,501514
824,000000	13,479112
823,000000	13,505619
822,000000	13,571432
821,000000	13,653997
820,000000	13,736269
819,000000	13,811300
818,000000	13,871573
817,000000	13,909222
816,000000	13,926218
815,000000	13,932303
814,000000	13,931814
813,000000	13,922716
812,000000	13,906326
811,000000	13,887114
810,000000	13,864478
809,000000	13,834766
808,000000	13,800679
807,000000	13,768774
806,000000	13,739261
805,000000	13,707732
804,000000	13,674988
803,000000	13,646138
802,000000	13,621706
801,000000	13,598600
800,000000	13,578020
799,000000	13,564262
798,000000	13,557241
797,000000	13,553785
796,000000	13,554520
795,000000	13,562148
794,000000	13,575253
793,000000	13,590195
792,000000	13,606937
791,000000	13,627152
790,000000	13,648946
789,000000	13,669123
788,000000	13,687808
787,000000	13,706095
786,000000	13,722196
785,000000	13,734364
784,000000	13,744244
783,000000	13,753361
782,000000	13,759978
781,000000	13,762670
780,000000	13,763160
779,000000	13,762620
778,000000	13,759498
777,000000	13,753551
776,000000	13,747362
775,000000	13,741734
774,000000	13,734129
773,000000	13,723386
772,000000	13,711343
771,000000	13,698719
770,000000	13,684262
769,000000	13,668472
768,000000	13,653186
767,000000	13,637675
766,000000	13,619977
765,000000	13,601116
764,000000	13,582867
763,000000	13,563498
762,000000	13,541166
761,000000	13,518550
760,000000	13,498230
759,000000	13,477379
758,000000	13,453246
757,000000	13,429105
756,000000	13,407935
755,000000	13,386058
754,000000	13,360355
753,000000	13,334978
752,000000	13,313066
751,000000	13,289504
750,000000	13,260453
749,000000	13,231148
748,000000	13,205382
747,000000	13,177244
746,000000	13,143084
745,000000	13,110034
744,000000	13,082251
743,000000	13,051617
742,000000	13,014110
741,000000	12,980916
740,000000	12,959565
739,000000	12,939193
738,000000	12,909116
737,000000	12,876371
736,000000	12,848860
735,000000	12,818943
734,000000	12,780580
733,000000	12,744591
732,000000	12,718194
731,000000	12,689447
730,000000	12,650715
729,000000	12,615507
728,000000	12,591805
727,000000	12,564548
726,000000	12,526819
725,000000	12,494932
724,000000	12,463636
723,000000	12,384716
722,000000	12,238710
721,000000	12,096235
720,000000	12,052281
719,000000	12,111824
718,000000	12,191690
717,000000	12,225133
716,000000	12,212975
715,000000	12,181186
714,000000	12,141618
713,000000	12,101669
712,000000	12,068524
711,000000	12,035077
710,000000	11,989375
709,000000	11,937376
708,000000	11,890394
707,000000	11,840968
706,000000	11,778861
705,000000	11,716606
704,000000	11,668249
703,000000	11,620090
702,000000	11,554294
701,000000	11,480639
700,000000	11,412645
699,000000	11,336721
698,000000	11,241125
697,000000	11,145759
696,000000	11,066138
695,000000	10,979285
694,000000	10,866107
693,000000	10,747992
692,000000	10,639338
691,000000	10,509600
690,000000	10,345183
689,000000	10,198581
688,000000	10,115636
687,000000	10,066351
686,000000	10,009660
685,000000	9,968385
684,000000	9,964814
683,000000	9,951751
682,000000	9,891430
681,000000	9,836456
680,000000	9,835334
679,000000	9,837169
678,000000	9,793480
677,000000	9,764868
676,000000	9,804528
675,000000	9,844163
674,000000	9,833115
673,000000	9,822895
672,000000	9,697585
671,000000	9,027517
670,000000	7,626204
669,000000	6,181952
668,000000	5,838174
667,000000	6,942962
666,000000	8,589190
665,000000	9,638458
664,000000	9,836966
663,000000	9,696352
662,000000	9,608515
661,000000	9,532089
660,000000	9,389397
659,000000	9,279038
658,000000	9,255002
657,000000	9,218770
656,000000	9,123957
655,000000	9,056527
654,000000	9,056311
653,000000	9,041497
652,000000	8,967982
651,000000	8,899488
650,000000	8,876358
649,000000	8,858203
648,000000	8,833975
647,000000	8,854043
646,000000	8,915428
645,000000	8,942768
644,000000	8,914761
643,000000	8,896492
642,000000	8,913443
641,000000	8,912060
640,000000	8,870988
639,000000	8,841937
638,000000	8,843817
637,000000	8,825095
636,000000	8,767272
635,000000	8,724823
634,000000	8,724473
633,000000	8,717408
632,000000	8,673532
631,000000	8,630816
630,000000	8,613669
629,000000	8,583733
628,000000	8,517405
627,000000	8,452854
626,000000	8,419306
625,000000	8,388637
624,000000	8,338261
623,000000	8,294014
622,000000	8,267653
621,000000	8,215620
620,000000	8,104888
619,000000	7,972884
618,000000	7,879153
617,000000	7,839796
616,000000	7,835791
615,000000	7,845344
614,000000	7,842149
613,000000	7,801966
612,000000	7,733784
611,000000	7,671355
610,000000	7,620972
609,000000	7,556712
608,000000	7,474016
607,000000	7,401743
606,000000	7,352863
605,000000	7,307934
604,000000	7,258301
603,000000	7,218232
602,000000	7,187139
601,000000	7,144709
600,000000	7,093233
599,000000	7,057432
598,000000	7,036607
597,000000	7,001874
596,000000	6,946598
595,000000	6,892125
594,000000	6,840232
593,000000	6,772105
592,000000	6,698059
591,000000	6,654890
590,000000	6,642615
589,000000	6,618382
588,000000	6,562032
587,000000	6,499524
586,000000	6,449132
585,000000	6,395593
584,000000	6,330066
583,000000	6,268149
582,000000	6,215605
581,000000	6,158843
580,000000	6,098360
579,000000	6,048216
578,000000	5,999801
577,000000	5,931911
576,000000	5,859551
575,000000	5,819583
574,000000	5,806191
573,000000	5,772694
572,000000	5,705244
571,000000	5,638069
570,000000	5,588623
569,000000	5,536057
568,000000	5,474514
567,000000	5,430251
566,000000	5,407345
565,000000	5,373433
564,000000	5,316293
563,000000	5,264412
562,000000	5,231281
561,000000	5,192592
560,000000	5,136609
559,000000	5,086966
558,000000	5,054296
557,000000	5,014732
556,000000	4,958462
555,000000	4,910647
554,000000	4,882930
553,000000	4,849403
552,000000	4,795614
551,000000	4,744416
550,000000	4,711291
549,000000	4,676266
548,000000	4,625886
547,000000	4,580515
546,000000	4,555593
545,000000	4,534471
544,000000	4,502843
543,000000	4,473334
542,000000	4,453225
541,000000	4,425832
540,000000	4,383928
539,000000	4,346704
538,000000	4,322534
537,000000	4,292791
536,000000	4,249803
535,000000	4,214012
534,000000	4,193328
533,000000	4,165515
532,000000	4,120658
531,000000	4,080627
530,000000	4,053895
529,000000	4,010521
528,000000	3,931789
527,000000	3,847860
526,000000	3,798405
525,000000	3,782396
524,000000	3,773393
523,000000	3,756173
522,000000	3,724670
521,000000	3,671238
520,000000	3,602124
519,000000	3,542517
518,000000	3,507720
517,000000	3,489581
516,000000	3,480425
515,000000	3,483484
514,000000	3,489399
513,000000	3,475971
512,000000	3,442979
511,000000	3,415367
510,000000	3,398447
509,000000	3,368566
508,000000	3,321030
507,000000	3,286740
506,000000	3,278736
505,000000	3,263240
504,000000	3,213101
503,000000	3,154199
502,000000	3,128085
501,000000	3,133970
500,000000	3,140626
499,000000	3,132146
498,000000	3,112800
497,000000	3,084620
496,000000	3,046880
495,000000	3,005945
494,000000	2,966127
493,000000	2,922933
492,000000	2,878210
491,000000	2,844825
490,000000	2,824129
489,000000	2,798003
488,000000	2,754574
487,000000	2,703494
486,000000	2,655048
485,000000	2,606785
484,000000	2,560531
483,000000	2,528987
482,000000	2,512190
481,000000	2,490131
480,000000	2,451399
479,000000	2,408390
478,000000	2,373085
477,000000	2,337794
476,000000	2,291264
475,000000	2,234315
474,000000	2,172885
473,000000	2,115618
472,000000	2,080766
471,000000	2,079948
470,000000	2,092145
469,000000	2,081954
468,000000	2,049423
467,000000	2,028158
466,000000	2,029169
465,000000	2,024150
464,000000	1,995978
463,000000	1,966909
462,000000	1,954091
461,000000	1,933970
460,000000	1,879751
459,000000	1,810635
458,000000	1,773374
457,000000	1,787447
456,000000	1,830002
455,000000	1,864260
454,000000	1,869406
453,000000	1,851653
452,000000	1,835361
451,000000	1,835674
450,000000	1,838911
449,000000	1,823520
448,000000	1,794415
447,000000	1,773549
446,000000	1,761505
445,000000	1,737797
444,000000	1,700895
443,000000	1,675156
442,000000	1,672248
441,000000	1,675086
440,000000	1,666553
439,000000	1,647191
438,000000	1,619041
437,000000	1,581443
436,000000	1,547436
435,000000	1,534445
434,000000	1,533423
433,000000	1,517559
432,000000	1,484432
431,000000	1,457748
430,000000	1,443707
429,000000	1,422140
428,000000	1,385512
427,000000	1,349172
426,000000	1,317234
425,000000	1,276435
424,000000	1,229985
423,000000	1,194297
422,000000	1,155462
421,000000	1,078434
420,000000	0,976267
419,000000	0,918019
418,000000	0,941808
417,000000	1,003029
416,000000	1,036933
415,000000	1,032828
414,000000	1,015425
413,000000	0,992653
412,000000	0,960036
411,000000	0,927693
410,000000	0,906013
409,000000	0,884087
408,000000	0,850757
407,000000	0,817292
406,000000	0,795450
405,000000	0,774514
404,000000	0,742532
403,000000	0,707466
402,000000	0,674961
401,000000	0,630164
400,000000	0,565937
399,000000	0,506399
398,000000	0,476936
397,000000	0,470641
396,000000	0,467181
395,000000	0,464159
394,000000	0,466906
393,000000	0,467087
392,000000	0,455395
391,000000	0,439255
390,000000	0,427512
389,000000	0,413005
388,000000	0,388011
387,000000	0,360331
386,000000	0,338493
385,000000	0,318415
384,000000	0,298313
383,000000	0,287435
382,000000	0,286408
381,000000	0,279747
380,000000	0,260334
379,000000	0,239776
378,000000	0,223094
377,000000	0,199189
376,000000	0,168455
375,000000	0,152177
374,000000	0,158167
373,000000	0,164725
372,000000	0,155279
371,000000	0,142110
370,000000	0,138577
369,000000	0,135451
368,000000	0,123066
367,000000	0,111820
366,000000	0,109825
365,000000	0,105494
364,000000	0,091443
363,000000	0,080638
362,000000	0,080876
361,000000	0,078384
360,000000	0,064594
359,000000	0,053395
358,000000	0,054116
357,000000	0,053449
356,000000	0,041441
355,000000	0,031577
354,000000	0,033359
353,000000	0,033432
352,000000	0,022974
351,000000	0,015773
350,000000	0,020711
349,000000	0,025518
348,000000	0,019069
347,000000	0,013909
346,000000	0,018321
345,000000	0,020909
344,000000	0,012532
343,000000	0,007037
342,000000	0,013462
341,000000	0,017152
340,000000	0,008911
339,000000	0,003363
338,000000	0,007381
337,000000	0,009302
336,000000	0,005365
335,000000	0,006159
334,000000	0,003851
333,000000	0,009384
332,000000	0,005240
331,000000	0,003435
330,000000	0,008796
329,000000	0,013286
328,000000	0,007589
327,000000	0,006100
326,000000	0,004785
325,000000	0,006640
324,000000	0,004823
323,000000	0,005394
322,000000	0,005896
321,000000	0,011192
320,000000	0,003600
319,000000	0,003237
318,000000	0,004457
317,000000	0,010209
316,000000	0,008656
315,000000	0,011728
314,000000	0,021430
313,000000	0,023440
312,000000	0,011203
311,000000	0,004484
310,000000	0,004872
309,000000	0,010405
308,000000	0,007863
307,000000	0,006914
306,000000	0,007749
305,000000	0,011270
304,000000	0,006983
303,000000	0,005912
302,000000	0,005962
301,000000	0,010025
300,000000	0,003397
