PE IR       SUBTECH     SPECTRUM    ASCII       PEDS        4.00        
   -1
ZnO .ASC
25/06/17
10:31:36.00
25/06/17
10:31:36.00
Praktikum
Sample 023 By Praktikum date Dienstag, Juni 17 2025
300,000000
#HDR
-1
-1
#GR
cm-1
EGY
1.0
0.0
4000,000000
-1,000000
3701
8
1,689539
0,000335
#DATA
4000,000000	1,192191
3999,000000	1,193157
3998,000000	1,194062
3997,000000	1,194868
3996,000000	1,195229
3995,000000	1,194961
3994,000000	1,194295
3993,000000	1,193450
3992,000000	1,192422
3991,000000	1,191576
3990,000000	1,192001
3989,000000	1,194459
3988,000000	1,198048
3987,000000	1,200640
3986,000000	1,201000
3985,000000	1,199972
3984,000000	1,199254
3983,000000	1,199523
3982,000000	1,200189
3981,000000	1,200568
3980,000000	1,200604
3979,000000	1,200498
3978,000000	1,200214
3977,000000	1,199626
3976,000000	1,198870
3975,000000	1,198355
3974,000000	1,198439
3973,000000	1,199151
3972,000000	1,200170
3971,000000	1,201153
3970,000000	1,202144
3969,000000	1,203581
3968,000000	1,205744
3967,000000	1,208221
3966,000000	1,209958
3965,000000	1,209836
3964,000000	1,207414
3963,000000	1,203508
3962,000000	1,200136
3961,000000	1,199297
3960,000000	1,201202
3959,000000	1,203930
3958,000000	1,205310
3957,000000	1,205120
3956,000000	1,204977
3955,000000	1,206080
3954,000000	1,207520
3953,000000	1,207040
3952,000000	1,203077
3951,000000	1,195948
3950,000000	1,187859
3949,000000	1,182316
3948,000000	1,182633
3947,000000	1,189190
3946,000000	1,197428
3945,000000	1,200094
3944,000000	1,193902
3943,000000	1,184195
3942,000000	1,180936
3941,000000	1,189078
3940,000000	1,203501
3939,000000	1,214826
3938,000000	1,218845
3937,000000	1,218018
3936,000000	1,214768
3935,000000	1,207292
3934,000000	1,193613
3933,000000	1,177335
3932,000000	1,166306
3931,000000	1,166192
3930,000000	1,176283
3929,000000	1,190586
3928,000000	1,201240
3927,000000	1,202251
3926,000000	1,193818
3925,000000	1,183668
3924,000000	1,181073
3923,000000	1,187661
3922,000000	1,195357
3921,000000	1,194496
3920,000000	1,183067
3919,000000	1,167267
3918,000000	1,155619
3917,000000	1,154194
3916,000000	1,165395
3915,000000	1,186852
3914,000000	1,210740
3913,000000	1,227973
3912,000000	1,234953
3911,000000	1,235719
3910,000000	1,235870
3909,000000	1,235038
3908,000000	1,226077
3907,000000	1,201301
3906,000000	1,159805
3905,000000	1,110750
3904,000000	1,069587
3903,000000	1,048452
3902,000000	1,047331
3901,000000	1,056383
3900,000000	1,068902
3899,000000	1,089177
3898,000000	1,124368
3897,000000	1,170346
3896,000000	1,209948
3895,000000	1,226069
3894,000000	1,213245
3893,000000	1,179384
3892,000000	1,142701
3891,000000	1,125654
3890,000000	1,139963
3889,000000	1,170408
3888,000000	1,181627
3887,000000	1,153806
3886,000000	1,108201
3885,000000	1,087457
3884,000000	1,108273
3883,000000	1,143790
3882,000000	1,156701
3881,000000	1,141544
3880,000000	1,127322
3879,000000	1,142006
3878,000000	1,180565
3877,000000	1,210962
3876,000000	1,208022
3875,000000	1,178643
3874,000000	1,150560
3873,000000	1,137161
3872,000000	1,122992
3871,000000	1,090648
3870,000000	1,053971
3869,000000	1,047913
3868,000000	1,083033
3867,000000	1,126378
3866,000000	1,139084
3865,000000	1,120560
3864,000000	1,103829
3863,000000	1,113600
3862,000000	1,143879
3861,000000	1,175609
3860,000000	1,198923
3859,000000	1,211726
3858,000000	1,206008
3857,000000	1,165686
3856,000000	1,081137
3855,000000	0,966502
3854,000000	0,864486
3853,000000	0,827027
3852,000000	0,878594
3851,000000	0,993382
3850,000000	1,114437
3849,000000	1,198025
3848,000000	1,237299
3847,000000	1,246653
3846,000000	1,237531
3845,000000	1,214759
3844,000000	1,186495
3843,000000	1,163447
3842,000000	1,147032
3841,000000	1,126486
3840,000000	1,091969
3839,000000	1,048508
3838,000000	1,016232
3837,000000	1,015152
3836,000000	1,048278
3835,000000	1,097093
3834,000000	1,136186
3833,000000	1,154067
3832,000000	1,160341
3831,000000	1,172049
3830,000000	1,194158
3829,000000	1,215590
3828,000000	1,222948
3827,000000	1,216681
3826,000000	1,209781
3825,000000	1,208392
3824,000000	1,197155
3823,000000	1,154148
3822,000000	1,085935
3821,000000	1,035760
3820,000000	1,042106
3819,000000	1,090506
3818,000000	1,124135
3817,000000	1,109796
3816,000000	1,077209
3815,000000	1,082859
3814,000000	1,143359
3813,000000	1,221789
3812,000000	1,273676
3811,000000	1,285924
3810,000000	1,268406
3809,000000	1,228473
3808,000000	1,173627
3807,000000	1,128229
3806,000000	1,121623
3805,000000	1,150678
3804,000000	1,170518
3803,000000	1,141246
3802,000000	1,078777
3801,000000	1,043382
3800,000000	1,072567
3799,000000	1,140142
3798,000000	1,190675
3797,000000	1,201809
3796,000000	1,199375
3795,000000	1,214805
3794,000000	1,248757
3793,000000	1,279968
3792,000000	1,295099
3791,000000	1,298230
3790,000000	1,297931
3789,000000	1,296925
3788,000000	1,293422
3787,000000	1,285701
3786,000000	1,274655
3785,000000	1,265290
3784,000000	1,263721
3783,000000	1,268896
3782,000000	1,269522
3781,000000	1,255456
3780,000000	1,232212
3779,000000	1,219063
3778,000000	1,230014
3777,000000	1,259222
3776,000000	1,287688
3775,000000	1,301920
3774,000000	1,301570
3773,000000	1,289785
3772,000000	1,264650
3771,000000	1,227157
3770,000000	1,193082
3769,000000	1,183508
3768,000000	1,200140
3767,000000	1,221110
3766,000000	1,229038
3765,000000	1,232554
3764,000000	1,248124
3763,000000	1,269411
3762,000000	1,271452
3761,000000	1,244951
3760,000000	1,209216
3759,000000	1,189156
3758,000000	1,192019
3757,000000	1,208791
3756,000000	1,223467
3755,000000	1,215624
3754,000000	1,169409
3753,000000	1,090797
3752,000000	1,009447
3751,000000	0,956785
3750,000000	0,947807
3749,000000	0,980551
3748,000000	1,034124
3747,000000	1,065981
3746,000000	1,038418
3745,000000	0,967672
3744,000000	0,925656
3743,000000	0,969904
3742,000000	1,078032
3741,000000	1,173815
3740,000000	1,206908
3739,000000	1,183546
3738,000000	1,131561
3737,000000	1,069913
3736,000000	1,017123
3735,000000	0,995434
3734,000000	1,009862
3733,000000	1,041177
3732,000000	1,073741
3731,000000	1,113305
3730,000000	1,164099
3729,000000	1,205655
3728,000000	1,212791
3727,000000	1,190197
3726,000000	1,167793
3725,000000	1,164702
3724,000000	1,173801
3723,000000	1,181900
3722,000000	1,188926
3721,000000	1,202414
3720,000000	1,223264
3719,000000	1,245397
3718,000000	1,264458
3717,000000	1,279248
3716,000000	1,284446
3715,000000	1,268114
3714,000000	1,222232
3713,000000	1,157092
3712,000000	1,101236
3711,000000	1,081378
3710,000000	1,102370
3709,000000	1,147672
3708,000000	1,197155
3707,000000	1,239650
3706,000000	1,269376
3705,000000	1,280070
3704,000000	1,268394
3703,000000	1,241495
3702,000000	1,217147
3701,000000	1,213373
3700,000000	1,235038
3699,000000	1,268509
3698,000000	1,292649
3697,000000	1,298372
3696,000000	1,294185
3695,000000	1,289738
3694,000000	1,280011
3693,000000	1,252663
3692,000000	1,205803
3691,000000	1,150204
3690,000000	1,099021
3689,000000	1,067004
3688,000000	1,073497
3687,000000	1,128366
3686,000000	1,211761
3685,000000	1,283683
3684,000000	1,319714
3683,000000	1,326378
3682,000000	1,320301
3681,000000	1,307012
3680,000000	1,285224
3679,000000	1,253300
3678,000000	1,203236
3677,000000	1,127505
3676,000000	1,047138
3675,000000	1,012817
3674,000000	1,052275
3673,000000	1,125769
3672,000000	1,160696
3671,000000	1,133854
3670,000000	1,095163
3669,000000	1,105328
3668,000000	1,171608
3667,000000	1,253595
3666,000000	1,313413
3665,000000	1,343273
3664,000000	1,353035
3663,000000	1,352742
3662,000000	1,349141
3661,000000	1,346539
3660,000000	1,342523
3659,000000	1,326425
3658,000000	1,290490
3657,000000	1,244913
3656,000000	1,217054
3655,000000	1,226742
3654,000000	1,258520
3653,000000	1,267213
3652,000000	1,219693
3651,000000	1,130579
3650,000000	1,049772
3649,000000	1,017238
3648,000000	1,038378
3647,000000	1,097117
3646,000000	1,174769
3645,000000	1,251591
3644,000000	1,306704
3643,000000	1,330684
3642,000000	1,334163
3641,000000	1,334213
3640,000000	1,336088
3639,000000	1,335651
3638,000000	1,332438
3637,000000	1,329207
3636,000000	1,322736
3635,000000	1,308048
3634,000000	1,289619
3633,000000	1,273983
3632,000000	1,249836
3631,000000	1,193999
3630,000000	1,108745
3629,000000	1,039705
3628,000000	1,038865
3627,000000	1,111193
3626,000000	1,209180
3625,000000	1,280929
3624,000000	1,309818
3623,000000	1,307291
3622,000000	1,284363
3621,000000	1,244701
3620,000000	1,199480
3619,000000	1,171996
3618,000000	1,179124
3617,000000	1,213370
3616,000000	1,247791
3615,000000	1,260043
3614,000000	1,250254
3613,000000	1,236025
3612,000000	1,231179
3611,000000	1,231562
3610,000000	1,224842
3609,000000	1,211521
3608,000000	1,208813
3607,000000	1,231059
3606,000000	1,271271
3605,000000	1,307772
3604,000000	1,325371
3603,000000	1,324716
3602,000000	1,314511
3601,000000	1,302889
3600,000000	1,295773
3599,000000	1,295507
3598,000000	1,297557
3597,000000	1,293857
3596,000000	1,282755
3595,000000	1,272873
3594,000000	1,274447
3593,000000	1,288356
3592,000000	1,304074
3591,000000	1,305701
3590,000000	1,282318
3589,000000	1,238751
3588,000000	1,198265
3587,000000	1,187827
3586,000000	1,215936
3585,000000	1,265785
3584,000000	1,311773
3583,000000	1,339589
3582,000000	1,350350
3581,000000	1,351625
3580,000000	1,350244
3579,000000	1,350439
3578,000000	1,352880
3577,000000	1,355023
3576,000000	1,355057
3575,000000	1,354695
3574,000000	1,356586
3573,000000	1,360357
3572,000000	1,361791
3571,000000	1,353861
3570,000000	1,328846
3569,000000	1,285500
3568,000000	1,237386
3567,000000	1,209118
3566,000000	1,217120
3565,000000	1,254644
3564,000000	1,298479
3563,000000	1,329698
3562,000000	1,344869
3561,000000	1,350659
3560,000000	1,354034
3559,000000	1,358385
3558,000000	1,363892
3557,000000	1,368244
3556,000000	1,368444
3555,000000	1,363159
3554,000000	1,353804
3553,000000	1,344326
3552,000000	1,340037
3551,000000	1,343725
3550,000000	1,350964
3549,000000	1,351769
3548,000000	1,340510
3547,000000	1,323222
3546,000000	1,312408
3545,000000	1,315222
3544,000000	1,329041
3543,000000	1,346629
3542,000000	1,362060
3541,000000	1,372094
3540,000000	1,375647
3539,000000	1,373757
3538,000000	1,369032
3537,000000	1,364629
3536,000000	1,363604
3535,000000	1,367477
3534,000000	1,373903
3533,000000	1,377453
3532,000000	1,374613
3531,000000	1,367139
3530,000000	1,359145
3529,000000	1,352758
3528,000000	1,348308
3527,000000	1,346324
3526,000000	1,346487
3525,000000	1,346572
3524,000000	1,345741
3523,000000	1,347306
3522,000000	1,354761
3521,000000	1,365872
3520,000000	1,374520
3519,000000	1,377949
3518,000000	1,378794
3517,000000	1,379995
3516,000000	1,381419
3515,000000	1,381929
3514,000000	1,381374
3513,000000	1,379273
3512,000000	1,374248
3511,000000	1,366592
3510,000000	1,359810
3509,000000	1,358031
3508,000000	1,362013
3507,000000	1,367885
3506,000000	1,369571
3505,000000	1,363552
3504,000000	1,352911
3503,000000	1,345808
3502,000000	1,348258
3501,000000	1,358294
3500,000000	1,368593
3499,000000	1,373897
3498,000000	1,374470
3497,000000	1,373396
3496,000000	1,373194
3495,000000	1,374958
3494,000000	1,378347
3493,000000	1,381665
3492,000000	1,383141
3491,000000	1,382341
3490,000000	1,379745
3489,000000	1,375982
3488,000000	1,372589
3487,000000	1,372020
3486,000000	1,374662
3485,000000	1,376931
3484,000000	1,374727
3483,000000	1,368545
3482,000000	1,362955
3481,000000	1,361524
3480,000000	1,364282
3479,000000	1,369438
3478,000000	1,374950
3477,000000	1,378585
3476,000000	1,379149
3475,000000	1,378106
3474,000000	1,377996
3473,000000	1,379213
3472,000000	1,380171
3471,000000	1,380339
3470,000000	1,380700
3469,000000	1,381289
3468,000000	1,380899
3467,000000	1,379680
3466,000000	1,379533
3465,000000	1,381086
3464,000000	1,382395
3463,000000	1,381802
3462,000000	1,380379
3461,000000	1,380435
3460,000000	1,382748
3459,000000	1,386149
3458,000000	1,388962
3457,000000	1,390211
3456,000000	1,390126
3455,000000	1,389835
3454,000000	1,390128
3453,000000	1,390737
3452,000000	1,391187
3451,000000	1,391374
3450,000000	1,390349
3449,000000	1,386100
3448,000000	1,378622
3447,000000	1,372142
3446,000000	1,371498
3445,000000	1,376482
3444,000000	1,382144
3443,000000	1,384728
3442,000000	1,384928
3441,000000	1,385111
3440,000000	1,386211
3439,000000	1,388209
3438,000000	1,391191
3437,000000	1,394488
3436,000000	1,396495
3435,000000	1,396669
3434,000000	1,396429
3433,000000	1,397087
3432,000000	1,398170
3431,000000	1,398739
3430,000000	1,399095
3429,000000	1,400138
3428,000000	1,401973
3427,000000	1,404112
3426,000000	1,406179
3425,000000	1,407588
3424,000000	1,407257
3423,000000	1,404686
3422,000000	1,401068
3421,000000	1,398839
3420,000000	1,400122
3419,000000	1,405252
3418,000000	1,412066
3417,000000	1,416953
3416,000000	1,417678
3415,000000	1,415433
3414,000000	1,413449
3413,000000	1,413736
3412,000000	1,415985
3411,000000	1,419007
3410,000000	1,421644
3409,000000	1,422603
3408,000000	1,421310
3407,000000	1,419300
3406,000000	1,418986
3405,000000	1,420472
3404,000000	1,421189
3403,000000	1,419514
3402,000000	1,417180
3401,000000	1,416900
3400,000000	1,418931
3399,000000	1,421399
3398,000000	1,423205
3397,000000	1,424883
3396,000000	1,426695
3395,000000	1,427451
3394,000000	1,426026
3393,000000	1,423442
3392,000000	1,422531
3391,000000	1,425223
3390,000000	1,430383
3389,000000	1,434775
3388,000000	1,436162
3387,000000	1,435111
3386,000000	1,433779
3385,000000	1,433631
3384,000000	1,434720
3383,000000	1,436417
3382,000000	1,438011
3381,000000	1,439005
3380,000000	1,439536
3379,000000	1,440265
3378,000000	1,441399
3377,000000	1,442280
3376,000000	1,442435
3375,000000	1,442423
3374,000000	1,442976
3373,000000	1,443860
3372,000000	1,444393
3371,000000	1,444484
3370,000000	1,444317
3369,000000	1,443678
3368,000000	1,442566
3367,000000	1,441844
3366,000000	1,442206
3365,000000	1,442999
3364,000000	1,443271
3363,000000	1,443438
3362,000000	1,444657
3361,000000	1,446864
3360,000000	1,448761
3359,000000	1,449617
3358,000000	1,449906
3357,000000	1,450266
3356,000000	1,450985
3355,000000	1,452400
3354,000000	1,454570
3353,000000	1,456568
3352,000000	1,457181
3351,000000	1,456429
3350,000000	1,455513
3349,000000	1,455338
3348,000000	1,455893
3347,000000	1,456923
3346,000000	1,458183
3345,000000	1,459096
3344,000000	1,459154
3343,000000	1,458655
3342,000000	1,458296
3341,000000	1,458191
3340,000000	1,458024
3339,000000	1,457843
3338,000000	1,457903
3337,000000	1,458113
3336,000000	1,458490
3335,000000	1,459641
3334,000000	1,461762
3333,000000	1,463712
3332,000000	1,464267
3331,000000	1,463777
3330,000000	1,463362
3329,000000	1,463069
3328,000000	1,462333
3327,000000	1,461779
3326,000000	1,462741
3325,000000	1,465096
3324,000000	1,467364
3323,000000	1,469014
3322,000000	1,470904
3321,000000	1,473204
3320,000000	1,474623
3319,000000	1,474370
3318,000000	1,473382
3317,000000	1,472810
3316,000000	1,472564
3315,000000	1,472103
3314,000000	1,471587
3313,000000	1,471419
3312,000000	1,471363
3311,000000	1,470889
3310,000000	1,469940
3309,000000	1,468966
3308,000000	1,468714
3307,000000	1,470066
3306,000000	1,473292
3305,000000	1,477212
3304,000000	1,479868
3303,000000	1,480453
3302,000000	1,479887
3301,000000	1,479253
3300,000000	1,478505
3299,000000	1,477199
3298,000000	1,475801
3297,000000	1,475473
3296,000000	1,476695
3295,000000	1,478629
3294,000000	1,479952
3293,000000	1,480232
3292,000000	1,480400
3291,000000	1,481666
3290,000000	1,483981
3289,000000	1,486011
3288,000000	1,486770
3287,000000	1,486678
3286,000000	1,486692
3285,000000	1,487062
3284,000000	1,487540
3283,000000	1,488073
3282,000000	1,488536
3281,000000	1,488376
3280,000000	1,487401
3279,000000	1,486471
3278,000000	1,486454
3277,000000	1,486972
3276,000000	1,487075
3275,000000	1,486718
3274,000000	1,486647
3273,000000	1,487208
3272,000000	1,488307
3271,000000	1,490088
3270,000000	1,492525
3269,000000	1,494686
3268,000000	1,495613
3267,000000	1,495800
3266,000000	1,496565
3265,000000	1,498099
3264,000000	1,499280
3263,000000	1,499471
3262,000000	1,499399
3261,000000	1,499971
3260,000000	1,501118
3259,000000	1,501998
3258,000000	1,501772
3257,000000	1,500229
3256,000000	1,498233
3255,000000	1,497339
3254,000000	1,498279
3253,000000	1,500083
3252,000000	1,501397
3251,000000	1,502168
3250,000000	1,503114
3249,000000	1,504050
3248,000000	1,503941
3247,000000	1,502572
3246,000000	1,501021
3245,000000	1,500506
3244,000000	1,501450
3243,000000	1,503511
3242,000000	1,505681
3241,000000	1,506665
3240,000000	1,506104
3239,000000	1,505285
3238,000000	1,505706
3237,000000	1,507267
3236,000000	1,508684
3235,000000	1,509280
3234,000000	1,509390
3233,000000	1,509372
3232,000000	1,509400
3231,000000	1,509924
3230,000000	1,511192
3229,000000	1,512495
3228,000000	1,512951
3227,000000	1,512834
3226,000000	1,513164
3225,000000	1,514214
3224,000000	1,515412
3223,000000	1,516220
3222,000000	1,516160
3221,000000	1,514686
3220,000000	1,512391
3219,000000	1,511616
3218,000000	1,514019
3217,000000	1,517928
3216,000000	1,519980
3215,000000	1,519244
3214,000000	1,517917
3213,000000	1,517810
3212,000000	1,518324
3211,000000	1,518299
3210,000000	1,518003
3209,000000	1,518343
3208,000000	1,519490
3207,000000	1,521118
3206,000000	1,522890
3205,000000	1,524121
3204,000000	1,524048
3203,000000	1,523069
3202,000000	1,522669
3201,000000	1,523520
3200,000000	1,524633
3199,000000	1,524947
3198,000000	1,524822
3197,000000	1,525302
3196,000000	1,526740
3195,000000	1,528688
3194,000000	1,530538
3193,000000	1,531747
3192,000000	1,532089
3191,000000	1,532074
3190,000000	1,532555
3189,000000	1,533611
3188,000000	1,534325
3187,000000	1,533894
3186,000000	1,532474
3185,000000	1,530939
3184,000000	1,530293
3183,000000	1,531141
3182,000000	1,532957
3181,000000	1,534065
3180,000000	1,533299
3179,000000	1,531627
3178,000000	1,531257
3177,000000	1,533117
3176,000000	1,536165
3175,000000	1,538963
3174,000000	1,540830
3173,000000	1,541457
3172,000000	1,540779
3171,000000	1,539528
3170,000000	1,538849
3169,000000	1,539018
3168,000000	1,539407
3167,000000	1,539849
3166,000000	1,540877
3165,000000	1,542449
3164,000000	1,543654
3163,000000	1,544158
3162,000000	1,544783
3161,000000	1,546015
3160,000000	1,547000
3159,000000	1,546805
3158,000000	1,545930
3157,000000	1,545691
3156,000000	1,546510
3155,000000	1,547511
3154,000000	1,547695
3153,000000	1,547132
3152,000000	1,546937
3151,000000	1,548062
3150,000000	1,550042
3149,000000	1,551375
3148,000000	1,551436
3147,000000	1,551366
3146,000000	1,552297
3145,000000	1,553454
3144,000000	1,553193
3143,000000	1,551562
3142,000000	1,550360
3141,000000	1,550687
3140,000000	1,551830
3139,000000	1,552800
3138,000000	1,553625
3137,000000	1,554557
3136,000000	1,555104
3135,000000	1,554634
3134,000000	1,553373
3133,000000	1,552347
3132,000000	1,552596
3131,000000	1,554495
3130,000000	1,557207
3129,000000	1,558978
3128,000000	1,558639
3127,000000	1,556858
3126,000000	1,555141
3125,000000	1,553908
3124,000000	1,552544
3123,000000	1,551159
3122,000000	1,550923
3121,000000	1,552339
3120,000000	1,554325
3119,000000	1,555515
3118,000000	1,555706
3117,000000	1,555732
3116,000000	1,556574
3115,000000	1,558731
3114,000000	1,561635
3113,000000	1,563631
3112,000000	1,563381
3111,000000	1,561526
3110,000000	1,560148
3109,000000	1,560519
3108,000000	1,562112
3107,000000	1,563790
3106,000000	1,564923
3105,000000	1,565259
3104,000000	1,564832
3103,000000	1,564365
3102,000000	1,564886
3101,000000	1,566511
3100,000000	1,568259
3099,000000	1,569198
3098,000000	1,569189
3097,000000	1,568591
3096,000000	1,568124
3095,000000	1,568856
3094,000000	1,571193
3093,000000	1,573824
3092,000000	1,574782
3091,000000	1,573764
3090,000000	1,572313
3089,000000	1,571626
3088,000000	1,571384
3087,000000	1,571051
3086,000000	1,570971
3085,000000	1,571560
3084,000000	1,572442
3083,000000	1,573069
3082,000000	1,573439
3081,000000	1,573741
3080,000000	1,574033
3079,000000	1,574656
3078,000000	1,576172
3077,000000	1,578435
3076,000000	1,580441
3075,000000	1,581445
3074,000000	1,581611
3073,000000	1,581333
3072,000000	1,580716
3071,000000	1,579954
3070,000000	1,579387
3069,000000	1,578868
3068,000000	1,577882
3067,000000	1,576565
3066,000000	1,575830
3065,000000	1,576157
3064,000000	1,577078
3063,000000	1,578098
3062,000000	1,579287
3061,000000	1,580561
3060,000000	1,581222
3059,000000	1,580767
3058,000000	1,579636
3057,000000	1,578822
3056,000000	1,579153
3055,000000	1,580931
3054,000000	1,583475
3053,000000	1,585070
3052,000000	1,584370
3051,000000	1,582194
3050,000000	1,580958
3049,000000	1,581994
3048,000000	1,584289
3047,000000	1,586114
3046,000000	1,586901
3045,000000	1,587021
3044,000000	1,586772
3043,000000	1,586388
3042,000000	1,586402
3041,000000	1,587178
3040,000000	1,588334
3039,000000	1,589072
3038,000000	1,588862
3037,000000	1,587642
3036,000000	1,585795
3035,000000	1,584020
3034,000000	1,582798
3033,000000	1,581923
3032,000000	1,581072
3031,000000	1,580751
3030,000000	1,581829
3029,000000	1,584051
3028,000000	1,585881
3027,000000	1,586135
3026,000000	1,585122
3025,000000	1,583914
3024,000000	1,583188
3023,000000	1,583002
3022,000000	1,583001
3021,000000	1,582511
3020,000000	1,581038
3019,000000	1,579009
3018,000000	1,577524
3017,000000	1,577162
3016,000000	1,577491
3015,000000	1,577826
3014,000000	1,577950
3013,000000	1,578112
3012,000000	1,578963
3011,000000	1,581464
3010,000000	1,586043
3009,000000	1,591611
3008,000000	1,596053
3007,000000	1,597977
3006,000000	1,597594
3005,000000	1,596060
3004,000000	1,594605
3003,000000	1,594216
3002,000000	1,595285
3001,000000	1,597239
3000,000000	1,599057
2999,000000	1,600177
2998,000000	1,600573
2997,000000	1,600260
2996,000000	1,599454
2995,000000	1,598888
2994,000000	1,599079
2993,000000	1,599468
2992,000000	1,599197
2991,000000	1,598518
2990,000000	1,598410
2989,000000	1,598938
2988,000000	1,599171
2987,000000	1,598725
2986,000000	1,598234
2985,000000	1,598166
2984,000000	1,598220
2983,000000	1,598073
2982,000000	1,597708
2981,000000	1,596891
2980,000000	1,595363
2979,000000	1,593688
2978,000000	1,592833
2977,000000	1,592699
2976,000000	1,592069
2975,000000	1,590229
2974,000000	1,587662
2973,000000	1,584984
2972,000000	1,582263
2971,000000	1,579586
2970,000000	1,577205
2969,000000	1,574796
2968,000000	1,571597
2967,000000	1,567650
2966,000000	1,564016
2965,000000	1,561438
2964,000000	1,559606
2963,000000	1,557939
2962,000000	1,556206
2961,000000	1,554242
2960,000000	1,552076
2959,000000	1,550472
2958,000000	1,550300
2957,000000	1,551134
2956,000000	1,551554
2955,000000	1,551062
2954,000000	1,550564
2953,000000	1,550659
2952,000000	1,550703
2951,000000	1,550070
2950,000000	1,549145
2949,000000	1,548433
2948,000000	1,547638
2947,000000	1,546301
2946,000000	1,544519
2945,000000	1,542429
2944,000000	1,539819
2943,000000	1,536836
2942,000000	1,534306
2941,000000	1,532654
2940,000000	1,531071
2939,000000	1,528352
2938,000000	1,524224
2937,000000	1,519548
2936,000000	1,515562
2935,000000	1,513062
2934,000000	1,511777
2933,000000	1,510465
2932,000000	1,508155
2931,000000	1,505241
2930,000000	1,502831
2929,000000	1,501244
2928,000000	1,499978
2927,000000	1,498897
2926,000000	1,498381
2925,000000	1,498437
2924,000000	1,498855
2923,000000	1,500295
2922,000000	1,503976
2921,000000	1,509983
2920,000000	1,516897
2919,000000	1,523333
2918,000000	1,528971
2917,000000	1,534031
2916,000000	1,538834
2915,000000	1,543944
2914,000000	1,549601
2913,000000	1,554954
2912,000000	1,558985
2911,000000	1,562160
2910,000000	1,565782
2909,000000	1,569691
2908,000000	1,572259
2907,000000	1,572996
2906,000000	1,573485
2905,000000	1,575131
2904,000000	1,577525
2903,000000	1,579773
2902,000000	1,581933
2901,000000	1,584236
2900,000000	1,586178
2899,000000	1,587487
2898,000000	1,588932
2897,000000	1,591210
2896,000000	1,593809
2895,000000	1,595832
2894,000000	1,597161
2893,000000	1,598107
2892,000000	1,598719
2891,000000	1,599137
2890,000000	1,599938
2889,000000	1,601467
2888,000000	1,603405
2887,000000	1,605314
2886,000000	1,606903
2885,000000	1,607579
2884,000000	1,606811
2883,000000	1,605206
2882,000000	1,604129
2881,000000	1,603857
2880,000000	1,603314
2879,000000	1,601953
2878,000000	1,600545
2877,000000	1,599496
2876,000000	1,597946
2875,000000	1,595429
2874,000000	1,593062
2873,000000	1,591881
2872,000000	1,591123
2871,000000	1,589377
2870,000000	1,586544
2869,000000	1,583385
2868,000000	1,579907
2867,000000	1,575445
2866,000000	1,570020
2865,000000	1,564539
2864,000000	1,559922
2863,000000	1,556692
2862,000000	1,555023
2861,000000	1,554539
2860,000000	1,554424
2859,000000	1,554273
2858,000000	1,554449
2857,000000	1,555276
2856,000000	1,556582
2855,000000	1,558417
2854,000000	1,561348
2853,000000	1,565427
2852,000000	1,569666
2851,000000	1,573292
2850,000000	1,576900
2849,000000	1,581545
2848,000000	1,587165
2847,000000	1,592602
2846,000000	1,596839
2845,000000	1,599752
2844,000000	1,601937
2843,000000	1,604145
2842,000000	1,606589
2841,000000	1,608677
2840,000000	1,609950
2839,000000	1,611202
2838,000000	1,613838
2837,000000	1,617956
2836,000000	1,622010
2835,000000	1,624683
2834,000000	1,626176
2833,000000	1,627335
2832,000000	1,628461
2831,000000	1,629479
2830,000000	1,630443
2829,000000	1,631386
2828,000000	1,632289
2827,000000	1,633475
2826,000000	1,635243
2825,000000	1,637004
2824,000000	1,637721
2823,000000	1,637438
2822,000000	1,637298
2821,000000	1,637838
2820,000000	1,638426
2819,000000	1,638673
2818,000000	1,639118
2817,000000	1,640078
2816,000000	1,641071
2815,000000	1,641872
2814,000000	1,642905
2813,000000	1,644034
2812,000000	1,644335
2811,000000	1,643685
2810,000000	1,643295
2809,000000	1,643903
2808,000000	1,644729
2807,000000	1,645009
2806,000000	1,645230
2805,000000	1,645929
2804,000000	1,646516
2803,000000	1,646382
2802,000000	1,646078
2801,000000	1,646309
2800,000000	1,646733
2799,000000	1,646767
2798,000000	1,646628
2797,000000	1,646632
2796,000000	1,646397
2795,000000	1,645716
2794,000000	1,645280
2793,000000	1,645586
2792,000000	1,646075
2791,000000	1,646254
2790,000000	1,646624
2789,000000	1,647548
2788,000000	1,648317
2787,000000	1,648495
2786,000000	1,649018
2785,000000	1,650648
2784,000000	1,652396
2783,000000	1,652919
2782,000000	1,652631
2781,000000	1,652907
2780,000000	1,653902
2779,000000	1,654692
2778,000000	1,655041
2777,000000	1,655471
2776,000000	1,655948
2775,000000	1,655933
2774,000000	1,655555
2773,000000	1,655503
2772,000000	1,655920
2771,000000	1,656497
2770,000000	1,657317
2769,000000	1,658506
2768,000000	1,659385
2767,000000	1,659189
2766,000000	1,658393
2765,000000	1,658157
2764,000000	1,658613
2763,000000	1,658849
2762,000000	1,658501
2761,000000	1,658206
2760,000000	1,658431
2759,000000	1,658885
2758,000000	1,659221
2757,000000	1,659435
2756,000000	1,659459
2755,000000	1,659125
2754,000000	1,658705
2753,000000	1,658838
2752,000000	1,659750
2751,000000	1,660953
2750,000000	1,661726
2749,000000	1,661614
2748,000000	1,660741
2747,000000	1,659996
2746,000000	1,660501
2745,000000	1,662267
2744,000000	1,663730
2743,000000	1,663277
2742,000000	1,661059
2741,000000	1,658769
2740,000000	1,657906
2739,000000	1,658695
2738,000000	1,660339
2737,000000	1,661695
2736,000000	1,661974
2735,000000	1,661342
2734,000000	1,660694
2733,000000	1,660529
2732,000000	1,660501
2731,000000	1,660379
2730,000000	1,660704
2729,000000	1,661834
2728,000000	1,663038
2727,000000	1,663435
2726,000000	1,663307
2725,000000	1,663558
2724,000000	1,664248
2723,000000	1,664699
2722,000000	1,664804
2721,000000	1,665153
2720,000000	1,665823
2719,000000	1,666030
2718,000000	1,665239
2717,000000	1,663966
2716,000000	1,663192
2715,000000	1,663464
2714,000000	1,664699
2713,000000	1,666409
2712,000000	1,667894
2711,000000	1,668559
2710,000000	1,668288
2709,000000	1,667467
2708,000000	1,666613
2707,000000	1,666056
2706,000000	1,665836
2705,000000	1,665759
2704,000000	1,665645
2703,000000	1,665633
2702,000000	1,666104
2701,000000	1,667189
2700,000000	1,668509
2699,000000	1,669466
2698,000000	1,669706
2697,000000	1,669314
2696,000000	1,668740
2695,000000	1,668434
2694,000000	1,668365
2693,000000	1,668095
2692,000000	1,667608
2691,000000	1,667705
2690,000000	1,669046
2689,000000	1,671086
2688,000000	1,672639
2687,000000	1,673259
2686,000000	1,673319
2685,000000	1,672979
2684,000000	1,672080
2683,000000	1,671038
2682,000000	1,670805
2681,000000	1,671734
2680,000000	1,673289
2679,000000	1,674915
2678,000000	1,676290
2677,000000	1,676716
2676,000000	1,675515
2675,000000	1,673346
2674,000000	1,671970
2673,000000	1,672195
2672,000000	1,673020
2671,000000	1,673342
2670,000000	1,673471
2669,000000	1,674256
2668,000000	1,675570
2667,000000	1,676524
2666,000000	1,676612
2665,000000	1,675994
2664,000000	1,675070
2663,000000	1,674238
2662,000000	1,673681
2661,000000	1,673101
2660,000000	1,672167
2659,000000	1,671348
2658,000000	1,671587
2657,000000	1,672935
2656,000000	1,674347
2655,000000	1,675145
2654,000000	1,675749
2653,000000	1,676530
2652,000000	1,676880
2651,000000	1,676137
2650,000000	1,674731
2649,000000	1,673715
2648,000000	1,673618
2647,000000	1,674257
2646,000000	1,675262
2645,000000	1,676279
2644,000000	1,677016
2643,000000	1,677406
2642,000000	1,677474
2641,000000	1,677101
2640,000000	1,676379
2639,000000	1,676041
2638,000000	1,676764
2637,000000	1,678119
2636,000000	1,679020
2635,000000	1,679132
2634,000000	1,678966
2633,000000	1,678764
2632,000000	1,678414
2631,000000	1,678360
2630,000000	1,679277
2629,000000	1,680728
2628,000000	1,681394
2627,000000	1,680864
2626,000000	1,679909
2625,000000	1,678947
2624,000000	1,677723
2623,000000	1,676690
2622,000000	1,676937
2621,000000	1,678244
2620,000000	1,678955
2619,000000	1,678472
2618,000000	1,678176
2617,000000	1,679030
2616,000000	1,679985
2615,000000	1,679902
2614,000000	1,679451
2613,000000	1,679751
2612,000000	1,680508
2611,000000	1,680921
2610,000000	1,681302
2609,000000	1,682248
2608,000000	1,683101
2607,000000	1,682717
2606,000000	1,681196
2605,000000	1,679652
2604,000000	1,678758
2603,000000	1,678491
2602,000000	1,678644
2601,000000	1,678742
2600,000000	1,678163
2599,000000	1,677195
2598,000000	1,677083
2597,000000	1,678161
2596,000000	1,678962
2595,000000	1,678276
2594,000000	1,677028
2593,000000	1,676784
2592,000000	1,677360
2591,000000	1,677442
2590,000000	1,676998
2589,000000	1,677413
2588,000000	1,679397
2587,000000	1,682015
2586,000000	1,683783
2585,000000	1,683893
2584,000000	1,682577
2583,000000	1,681002
2582,000000	1,680464
2581,000000	1,681050
2580,000000	1,681554
2579,000000	1,681285
2578,000000	1,681079
2577,000000	1,681733
2576,000000	1,682455
2575,000000	1,682111
2574,000000	1,681240
2573,000000	1,681299
2572,000000	1,682383
2571,000000	1,683148
2570,000000	1,682918
2569,000000	1,682470
2568,000000	1,682660
2567,000000	1,683324
2566,000000	1,683791
2565,000000	1,683727
2564,000000	1,683294
2563,000000	1,682967
2562,000000	1,683123
2561,000000	1,683513
2560,000000	1,683481
2559,000000	1,683090
2558,000000	1,683372
2557,000000	1,684841
2556,000000	1,686426
2555,000000	1,686780
2554,000000	1,686034
2553,000000	1,685312
2552,000000	1,684969
2551,000000	1,684504
2550,000000	1,683945
2549,000000	1,684030
2548,000000	1,684868
2547,000000	1,685465
2546,000000	1,685040
2545,000000	1,684137
2544,000000	1,684048
2543,000000	1,685367
2542,000000	1,687332
2541,000000	1,688464
2540,000000	1,687913
2539,000000	1,686266
2538,000000	1,684953
2537,000000	1,684842
2536,000000	1,685726
2535,000000	1,686997
2534,000000	1,688172
2533,000000	1,688644
2532,000000	1,687875
2531,000000	1,686315
2530,000000	1,685390
2529,000000	1,685912
2528,000000	1,687051
2527,000000	1,687504
2526,000000	1,687220
2525,000000	1,687221
2524,000000	1,688034
2523,000000	1,688999
2522,000000	1,689126
2521,000000	1,688159
2520,000000	1,686819
2519,000000	1,686172
2518,000000	1,686622
2517,000000	1,687463
2516,000000	1,687644
2515,000000	1,686985
2514,000000	1,686285
2513,000000	1,686292
2512,000000	1,687057
2511,000000	1,688216
2510,000000	1,689260
2509,000000	1,689539
2508,000000	1,688720
2507,000000	1,687336
2506,000000	1,686266
2505,000000	1,685718
2504,000000	1,685393
2503,000000	1,685381
2502,000000	1,685870
2501,000000	1,686090
2500,000000	1,684882
2499,000000	1,682624
2498,000000	1,681268
2497,000000	1,681942
2496,000000	1,683614
2495,000000	1,684732
2494,000000	1,685136
2493,000000	1,685626
2492,000000	1,686500
2491,000000	1,687320
2490,000000	1,687616
2489,000000	1,687247
2488,000000	1,686445
2487,000000	1,685793
2486,000000	1,685692
2485,000000	1,685764
2484,000000	1,685389
2483,000000	1,684743
2482,000000	1,684498
2481,000000	1,684643
2480,000000	1,684671
2479,000000	1,684792
2478,000000	1,685621
2477,000000	1,686655
2476,000000	1,686592
2475,000000	1,685469
2474,000000	1,684881
2473,000000	1,685649
2472,000000	1,686767
2471,000000	1,687297
2470,000000	1,687675
2469,000000	1,688287
2468,000000	1,688266
2467,000000	1,686858
2466,000000	1,684847
2465,000000	1,683550
2464,000000	1,683337
2463,000000	1,683947
2462,000000	1,685202
2461,000000	1,686549
2460,000000	1,686956
2459,000000	1,686213
2458,000000	1,685409
2457,000000	1,685319
2456,000000	1,685387
2455,000000	1,685121
2454,000000	1,685240
2453,000000	1,686290
2452,000000	1,687142
2451,000000	1,686290
2450,000000	1,684009
2449,000000	1,682083
2448,000000	1,681753
2447,000000	1,682850
2446,000000	1,684495
2445,000000	1,685812
2444,000000	1,686327
2443,000000	1,686258
2442,000000	1,686099
2441,000000	1,685774
2440,000000	1,684902
2439,000000	1,683992
2438,000000	1,684225
2437,000000	1,685608
2436,000000	1,686593
2435,000000	1,686156
2434,000000	1,685133
2433,000000	1,684724
2432,000000	1,684897
2431,000000	1,685074
2430,000000	1,685261
2429,000000	1,685562
2428,000000	1,685557
2427,000000	1,685101
2426,000000	1,684827
2425,000000	1,685059
2424,000000	1,685205
2423,000000	1,684963
2422,000000	1,684979
2421,000000	1,685421
2420,000000	1,685223
2419,000000	1,683948
2418,000000	1,683137
2417,000000	1,684328
2416,000000	1,686637
2415,000000	1,687820
2414,000000	1,687118
2413,000000	1,685608
2412,000000	1,684318
2411,000000	1,683492
2410,000000	1,683380
2409,000000	1,684239
2408,000000	1,685455
2407,000000	1,685818
2406,000000	1,684909
2405,000000	1,683449
2404,000000	1,682296
2403,000000	1,681748
2402,000000	1,681776
2401,000000	1,682238
2400,000000	1,682797
2399,000000	1,683121
2398,000000	1,683178
2397,000000	1,683082
2396,000000	1,682869
2395,000000	1,682687
2394,000000	1,682883
2393,000000	1,683453
2392,000000	1,683660
2391,000000	1,682557
2390,000000	1,679846
2389,000000	1,675756
2388,000000	1,670057
2387,000000	1,661345
2386,000000	1,647137
2385,000000	1,625196
2384,000000	1,594608
2383,000000	1,555651
2382,000000	1,508759
2381,000000	1,453753
2380,000000	1,391001
2379,000000	1,322327
2378,000000	1,250595
2377,000000	1,178697
2376,000000	1,108848
2375,000000	1,042338
2374,000000	0,979192
2373,000000	0,919057
2372,000000	0,862707
2371,000000	0,811891
2370,000000	0,767077
2369,000000	0,726781
2368,000000	0,689937
2367,000000	0,657232
2366,000000	0,629533
2365,000000	0,606345
2364,000000	0,587287
2363,000000	0,573370
2362,000000	0,564988
2361,000000	0,560869
2360,000000	0,560417
2359,000000	0,565360
2358,000000	0,577368
2357,000000	0,595771
2356,000000	0,620310
2355,000000	0,653588
2354,000000	0,698778
2353,000000	0,757997
2352,000000	0,833570
2351,000000	0,924289
2350,000000	1,012926
2349,000000	1,064637
2348,000000	1,050819
2347,000000	0,978575
2346,000000	0,888235
2345,000000	0,818733
2344,000000	0,780710
2343,000000	0,762798
2342,000000	0,753684
2341,000000	0,749974
2340,000000	0,750657
2339,000000	0,753711
2338,000000	0,758555
2337,000000	0,765536
2336,000000	0,773117
2335,000000	0,778603
2334,000000	0,781107
2333,000000	0,781615
2332,000000	0,781627
2331,000000	0,784082
2330,000000	0,793381
2329,000000	0,811278
2328,000000	0,834006
2327,000000	0,855694
2326,000000	0,873408
2325,000000	0,887565
2324,000000	0,899834
2323,000000	0,913214
2322,000000	0,931717
2321,000000	0,957239
2320,000000	0,988136
2319,000000	1,022309
2318,000000	1,059167
2317,000000	1,096486
2316,000000	1,128859
2315,000000	1,152909
2314,000000	1,171916
2313,000000	1,192125
2312,000000	1,216144
2311,000000	1,242810
2310,000000	1,271068
2309,000000	1,300490
2308,000000	1,329507
2307,000000	1,356807
2306,000000	1,383335
2305,000000	1,409999
2304,000000	1,434768
2303,000000	1,455124
2302,000000	1,471968
2301,000000	1,488072
2300,000000	1,503802
2299,000000	1,517619
2298,000000	1,529657
2297,000000	1,541542
2296,000000	1,553485
2295,000000	1,564433
2294,000000	1,574562
2293,000000	1,584794
2292,000000	1,594635
2291,000000	1,603158
2290,000000	1,611320
2289,000000	1,620673
2288,000000	1,630594
2287,000000	1,639372
2286,000000	1,647157
2285,000000	1,655044
2284,000000	1,661996
2283,000000	1,665628
2282,000000	1,665599
2281,000000	1,663778
2280,000000	1,661399
2279,000000	1,658552
2278,000000	1,655927
2277,000000	1,654567
2276,000000	1,654156
2275,000000	1,653574
2274,000000	1,652757
2273,000000	1,652175
2272,000000	1,651353
2271,000000	1,649860
2270,000000	1,648851
2269,000000	1,649501
2268,000000	1,650934
2267,000000	1,651770
2266,000000	1,652586
2265,000000	1,654525
2264,000000	1,656725
2263,000000	1,657648
2262,000000	1,657925
2261,000000	1,659228
2260,000000	1,661282
2259,000000	1,662656
2258,000000	1,663639
2257,000000	1,665577
2256,000000	1,668016
2255,000000	1,669273
2254,000000	1,669327
2253,000000	1,669566
2252,000000	1,670190
2251,000000	1,670417
2250,000000	1,670759
2249,000000	1,672439
2248,000000	1,674910
2247,000000	1,676381
2246,000000	1,676573
2245,000000	1,676638
2244,000000	1,676802
2243,000000	1,676376
2242,000000	1,675745
2241,000000	1,676025
2240,000000	1,677067
2239,000000	1,677902
2238,000000	1,678683
2237,000000	1,680090
2236,000000	1,681398
2235,000000	1,681404
2234,000000	1,680715
2233,000000	1,680877
2232,000000	1,681748
2231,000000	1,682014
2230,000000	1,681781
2229,000000	1,682352
2228,000000	1,683760
2227,000000	1,684762
2226,000000	1,684916
2225,000000	1,684640
2224,000000	1,683740
2223,000000	1,681964
2222,000000	1,680449
2221,000000	1,680451
2220,000000	1,681222
2219,000000	1,681220
2218,000000	1,680783
2217,000000	1,681378
2216,000000	1,682884
2215,000000	1,683901
2214,000000	1,684193
2213,000000	1,684554
2212,000000	1,684773
2211,000000	1,684059
2210,000000	1,683022
2209,000000	1,682956
2208,000000	1,683497
2207,000000	1,683191
2206,000000	1,681968
2205,000000	1,681078
2204,000000	1,680986
2203,000000	1,681207
2202,000000	1,681610
2201,000000	1,682060
2200,000000	1,681673
2199,000000	1,680344
2198,000000	1,679965
2197,000000	1,681964
2196,000000	1,684700
2195,000000	1,685589
2194,000000	1,684744
2193,000000	1,684017
2192,000000	1,683601
2191,000000	1,682297
2190,000000	1,680318
2189,000000	1,678953
2188,000000	1,678177
2187,000000	1,677225
2186,000000	1,676800
2185,000000	1,677931
2184,000000	1,679378
2183,000000	1,679127
2182,000000	1,677800
2181,000000	1,677669
2180,000000	1,678752
2179,000000	1,679079
2178,000000	1,678417
2177,000000	1,678566
2176,000000	1,679900
2175,000000	1,680664
2174,000000	1,680003
2173,000000	1,678918
2172,000000	1,677997
2171,000000	1,676753
2170,000000	1,675499
2169,000000	1,675386
2168,000000	1,676276
2167,000000	1,676802
2166,000000	1,676717
2165,000000	1,676992
2164,000000	1,677575
2163,000000	1,677300
2162,000000	1,676132
2161,000000	1,675369
2160,000000	1,675442
2159,000000	1,675511
2158,000000	1,675212
2157,000000	1,674977
2156,000000	1,674718
2155,000000	1,674088
2154,000000	1,673735
2153,000000	1,674455
2152,000000	1,675432
2151,000000	1,675230
2150,000000	1,674043
2149,000000	1,673106
2148,000000	1,672535
2147,000000	1,671737
2146,000000	1,671198
2145,000000	1,671584
2144,000000	1,671884
2143,000000	1,670824
2142,000000	1,669459
2141,000000	1,669721
2140,000000	1,670984
2139,000000	1,670820
2138,000000	1,668910
2137,000000	1,667480
2136,000000	1,667798
2135,000000	1,668765
2134,000000	1,669092
2133,000000	1,668789
2132,000000	1,668258
2131,000000	1,667778
2130,000000	1,667830
2129,000000	1,668411
2128,000000	1,668457
2127,000000	1,667467
2126,000000	1,666826
2125,000000	1,667788
2124,000000	1,669150
2123,000000	1,669011
2122,000000	1,667719
2121,000000	1,666915
2120,000000	1,666721
2119,000000	1,666194
2118,000000	1,665537
2117,000000	1,665436
2116,000000	1,665268
2115,000000	1,664363
2114,000000	1,663912
2113,000000	1,665031
2112,000000	1,666221
2111,000000	1,665511
2110,000000	1,663952
2109,000000	1,663921
2108,000000	1,665108
2107,000000	1,665354
2106,000000	1,664545
2105,000000	1,664394
2104,000000	1,664961
2103,000000	1,664757
2102,000000	1,663801
2101,000000	1,663495
2100,000000	1,663828
2099,000000	1,663685
2098,000000	1,663420
2097,000000	1,664137
2096,000000	1,664992
2095,000000	1,664206
2094,000000	1,662240
2093,000000	1,660955
2092,000000	1,660351
2091,000000	1,659139
2090,000000	1,657859
2089,000000	1,658077
2088,000000	1,659160
2087,000000	1,659137
2086,000000	1,658322
2085,000000	1,658721
2084,000000	1,660296
2083,000000	1,661133
2082,000000	1,660881
2081,000000	1,660744
2080,000000	1,660555
2079,000000	1,659297
2078,000000	1,657957
2077,000000	1,658374
2076,000000	1,659666
2075,000000	1,659462
2074,000000	1,658146
2073,000000	1,658200
2072,000000	1,659747
2071,000000	1,660680
2070,000000	1,660820
2069,000000	1,661671
2068,000000	1,662233
2067,000000	1,659610
2066,000000	1,654421
2065,000000	1,651117
2064,000000	1,651985
2063,000000	1,654574
2062,000000	1,656153
2061,000000	1,656930
2060,000000	1,657710
2059,000000	1,657973
2058,000000	1,657681
2057,000000	1,657975
2056,000000	1,658848
2055,000000	1,658884
2054,000000	1,658085
2053,000000	1,658170
2052,000000	1,659357
2051,000000	1,659788
2050,000000	1,658819
2049,000000	1,658010
2048,000000	1,658173
2047,000000	1,658269
2046,000000	1,657793
2045,000000	1,657343
2044,000000	1,656370
2043,000000	1,653498
2042,000000	1,649750
2041,000000	1,648321
2040,000000	1,650261
2039,000000	1,653155
2038,000000	1,654931
2037,000000	1,656077
2036,000000	1,657335
2035,000000	1,658082
2034,000000	1,658038
2033,000000	1,658078
2032,000000	1,658440
2031,000000	1,658332
2030,000000	1,657795
2029,000000	1,657706
2028,000000	1,657704
2027,000000	1,656634
2026,000000	1,655059
2025,000000	1,654667
2024,000000	1,655223
2023,000000	1,655059
2022,000000	1,654289
2021,000000	1,654152
2020,000000	1,653293
2019,000000	1,648941
2018,000000	1,642506
2017,000000	1,639763
2016,000000	1,643772
2015,000000	1,651006
2014,000000	1,656230
2013,000000	1,657959
2012,000000	1,657499
2011,000000	1,655871
2010,000000	1,653943
2009,000000	1,653152
2008,000000	1,653772
2007,000000	1,654209
2006,000000	1,653525
2005,000000	1,652757
2004,000000	1,652561
2003,000000	1,651896
2002,000000	1,650416
2001,000000	1,649780
2000,000000	1,650887
1999,000000	1,652138
1998,000000	1,652317
1997,000000	1,652669
1996,000000	1,653542
1995,000000	1,651166
1994,000000	1,641693
1993,000000	1,628010
1992,000000	1,618871
1991,000000	1,619968
1990,000000	1,628279
1989,000000	1,636616
1988,000000	1,641664
1987,000000	1,645346
1986,000000	1,649451
1985,000000	1,652444
1984,000000	1,652478
1983,000000	1,650768
1982,000000	1,649802
1981,000000	1,649795
1980,000000	1,649348
1979,000000	1,648512
1978,000000	1,648601
1977,000000	1,649447
1976,000000	1,649525
1975,000000	1,648690
1974,000000	1,648284
1973,000000	1,648602
1972,000000	1,648431
1971,000000	1,646724
1970,000000	1,642524
1969,000000	1,634612
1968,000000	1,624684
1967,000000	1,619349
1966,000000	1,624059
1965,000000	1,635240
1964,000000	1,643474
1963,000000	1,644723
1962,000000	1,643238
1961,000000	1,643128
1960,000000	1,643221
1959,000000	1,641692
1958,000000	1,639709
1957,000000	1,638163
1956,000000	1,636068
1955,000000	1,634376
1954,000000	1,636047
1953,000000	1,640439
1952,000000	1,643026
1951,000000	1,642443
1950,000000	1,641967
1949,000000	1,642579
1948,000000	1,641182
1947,000000	1,636983
1946,000000	1,631882
1945,000000	1,623328
1944,000000	1,606884
1943,000000	1,588955
1942,000000	1,585572
1941,000000	1,602068
1940,000000	1,623873
1939,000000	1,634937
1938,000000	1,635978
1937,000000	1,636472
1936,000000	1,638175
1935,000000	1,637048
1934,000000	1,634288
1933,000000	1,634319
1932,000000	1,636225
1931,000000	1,636406
1930,000000	1,635827
1929,000000	1,637024
1928,000000	1,638144
1927,000000	1,636282
1926,000000	1,631367
1925,000000	1,622323
1924,000000	1,607680
1923,000000	1,594520
1922,000000	1,594461
1921,000000	1,602950
1920,000000	1,597907
1919,000000	1,571723
1918,000000	1,550104
1917,000000	1,560920
1916,000000	1,595998
1915,000000	1,623863
1914,000000	1,631182
1913,000000	1,629360
1912,000000	1,626254
1911,000000	1,617131
1910,000000	1,603774
1909,000000	1,599118
1908,000000	1,607275
1907,000000	1,617207
1906,000000	1,620930
1905,000000	1,622518
1904,000000	1,625310
1903,000000	1,625469
1902,000000	1,622556
1901,000000	1,622563
1900,000000	1,626341
1899,000000	1,626975
1898,000000	1,621511
1897,000000	1,614076
1896,000000	1,607024
1895,000000	1,600589
1894,000000	1,599624
1893,000000	1,605962
1892,000000	1,606889
1891,000000	1,589192
1890,000000	1,564305
1889,000000	1,559217
1888,000000	1,579749
1887,000000	1,602966
1886,000000	1,610386
1885,000000	1,608788
1884,000000	1,610704
1883,000000	1,614882
1882,000000	1,616017
1881,000000	1,617050
1880,000000	1,620594
1879,000000	1,621742
1878,000000	1,618585
1877,000000	1,617444
1876,000000	1,620588
1875,000000	1,621448
1874,000000	1,617579
1873,000000	1,612208
1872,000000	1,598478
1871,000000	1,561919
1870,000000	1,509144
1869,000000	1,474262
1868,000000	1,482553
1867,000000	1,521988
1866,000000	1,563028
1865,000000	1,591702
1864,000000	1,609249
1863,000000	1,615661
1862,000000	1,611529
1861,000000	1,606195
1860,000000	1,607553
1859,000000	1,610978
1858,000000	1,610036
1857,000000	1,608915
1856,000000	1,612529
1855,000000	1,615138
1854,000000	1,611605
1853,000000	1,608767
1852,000000	1,612131
1851,000000	1,612881
1850,000000	1,602943
1849,000000	1,590417
1848,000000	1,581757
1847,000000	1,560120
1846,000000	1,506839
1845,000000	1,440913
1844,000000	1,411736
1843,000000	1,446090
1842,000000	1,517867
1841,000000	1,577698
1840,000000	1,600245
1839,000000	1,596299
1838,000000	1,588540
1837,000000	1,587322
1836,000000	1,590052
1835,000000	1,593581
1834,000000	1,596412
1833,000000	1,588605
1832,000000	1,554507
1831,000000	1,498887
1830,000000	1,458637
1829,000000	1,466671
1828,000000	1,506411
1827,000000	1,528257
1826,000000	1,513729
1825,000000	1,497081
1824,000000	1,513478
1823,000000	1,552284
1822,000000	1,580729
1821,000000	1,589236
1820,000000	1,590141
1819,000000	1,588683
1818,000000	1,581880
1817,000000	1,576154
1816,000000	1,581013
1815,000000	1,589692
1814,000000	1,585919
1813,000000	1,567684
1812,000000	1,547901
1811,000000	1,536426
1810,000000	1,535001
1809,000000	1,544232
1808,000000	1,560956
1807,000000	1,574307
1806,000000	1,576617
1805,000000	1,571551
1804,000000	1,561341
1803,000000	1,538600
1802,000000	1,504133
1801,000000	1,478756
1800,000000	1,480028
1799,000000	1,498927
1798,000000	1,516903
1797,000000	1,529586
1796,000000	1,534179
1795,000000	1,510857
1794,000000	1,448509
1793,000000	1,378906
1792,000000	1,354556
1791,000000	1,392093
1790,000000	1,460192
1789,000000	1,519496
1788,000000	1,549903
1787,000000	1,547143
1786,000000	1,522014
1785,000000	1,501828
1784,000000	1,505712
1783,000000	1,518657
1782,000000	1,513687
1781,000000	1,495515
1780,000000	1,492987
1779,000000	1,511722
1778,000000	1,527498
1777,000000	1,524612
1776,000000	1,505756
1775,000000	1,463263
1774,000000	1,384976
1773,000000	1,298639
1772,000000	1,266410
1771,000000	1,309762
1770,000000	1,376557
1769,000000	1,409996
1768,000000	1,419131
1767,000000	1,448683
1766,000000	1,501414
1765,000000	1,531395
1764,000000	1,506673
1763,000000	1,448331
1762,000000	1,405648
1761,000000	1,408866
1760,000000	1,445921
1759,000000	1,474848
1758,000000	1,466402
1757,000000	1,440532
1756,000000	1,442798
1755,000000	1,477875
1754,000000	1,491962
1753,000000	1,441331
1752,000000	1,355287
1751,000000	1,299895
1750,000000	1,299753
1749,000000	1,327935
1748,000000	1,359395
1747,000000	1,393330
1746,000000	1,424794
1745,000000	1,436984
1744,000000	1,429126
1743,000000	1,418728
1742,000000	1,406885
1741,000000	1,377906
1740,000000	1,344133
1739,000000	1,349083
1738,000000	1,394907
1737,000000	1,406777
1736,000000	1,317349
1735,000000	1,170477
1734,000000	1,090181
1733,000000	1,140853
1732,000000	1,263626
1731,000000	1,361823
1730,000000	1,406581
1729,000000	1,433018
1728,000000	1,465573
1727,000000	1,491072
1726,000000	1,494325
1725,000000	1,482865
1724,000000	1,473018
1723,000000	1,470927
1722,000000	1,469101
1721,000000	1,443996
1720,000000	1,367414
1719,000000	1,245313
1718,000000	1,138228
1717,000000	1,111884
1716,000000	1,167808
1715,000000	1,250066
1714,000000	1,319301
1713,000000	1,380575
1712,000000	1,437094
1711,000000	1,465694
1710,000000	1,457298
1709,000000	1,436609
1708,000000	1,415690
1707,000000	1,374474
1706,000000	1,317785
1705,000000	1,298002
1704,000000	1,328027
1703,000000	1,323022
1702,000000	1,206393
1701,000000	1,045426
1700,000000	0,988286
1699,000000	1,066456
1698,000000	1,156073
1697,000000	1,155509
1696,000000	1,118173
1695,000000	1,156409
1694,000000	1,280444
1693,000000	1,400197
1692,000000	1,446706
1691,000000	1,433622
1690,000000	1,409755
1689,000000	1,400592
1688,000000	1,389898
1687,000000	1,333111
1686,000000	1,206122
1685,000000	1,061711
1684,000000	1,006505
1683,000000	1,089363
1682,000000	1,237939
1681,000000	1,345900
1680,000000	1,389348
1679,000000	1,408130
1678,000000	1,407530
1677,000000	1,354156
1676,000000	1,265866
1675,000000	1,223411
1674,000000	1,265595
1673,000000	1,329059
1672,000000	1,330313
1671,000000	1,269434
1670,000000	1,215750
1669,000000	1,221728
1668,000000	1,283663
1667,000000	1,364777
1666,000000	1,421271
1665,000000	1,419308
1664,000000	1,364420
1663,000000	1,310921
1662,000000	1,312963
1661,000000	1,365945
1660,000000	1,418891
1659,000000	1,439328
1658,000000	1,435401
1657,000000	1,405750
1656,000000	1,310578
1655,000000	1,128032
1654,000000	0,927201
1653,000000	0,838717
1652,000000	0,929374
1651,000000	1,124079
1650,000000	1,270909
1649,000000	1,282122
1648,000000	1,198142
1647,000000	1,123967
1646,000000	1,128595
1645,000000	1,207545
1644,000000	1,310542
1643,000000	1,387149
1642,000000	1,416128
1641,000000	1,411482
1640,000000	1,396128
1639,000000	1,364555
1638,000000	1,288438
1637,000000	1,171654
1636,000000	1,079008
1635,000000	1,082282
1634,000000	1,182079
1633,000000	1,307472
1632,000000	1,388369
1631,000000	1,407111
1630,000000	1,385286
1629,000000	1,351224
1628,000000	1,327417
1627,000000	1,323053
1626,000000	1,322612
1625,000000	1,300329
1624,000000	1,259245
1623,000000	1,239840
1622,000000	1,273310
1621,000000	1,334641
1620,000000	1,359262
1619,000000	1,307470
1618,000000	1,205509
1617,000000	1,125846
1616,000000	1,127002
1615,000000	1,205137
1614,000000	1,300420
1613,000000	1,353415
1612,000000	1,354671
1611,000000	1,336632
1610,000000	1,325625
1609,000000	1,320863
1608,000000	1,316189
1607,000000	1,317458
1606,000000	1,327932
1605,000000	1,336229
1604,000000	1,333072
1603,000000	1,327250
1602,000000	1,331410
1601,000000	1,342460
1600,000000	1,349423
1599,000000	1,351189
1598,000000	1,352813
1597,000000	1,352183
1596,000000	1,344883
1595,000000	1,336721
1594,000000	1,337336
1593,000000	1,344707
1592,000000	1,348800
1591,000000	1,348023
1590,000000	1,349576
1589,000000	1,355079
1588,000000	1,358113
1587,000000	1,356370
1586,000000	1,355081
1585,000000	1,356503
1584,000000	1,355876
1583,000000	1,351221
1582,000000	1,349149
1581,000000	1,353235
1580,000000	1,349439
1579,000000	1,310250
1578,000000	1,223827
1577,000000	1,122648
1576,000000	1,073480
1575,000000	1,119605
1574,000000	1,227924
1573,000000	1,308730
1572,000000	1,300682
1571,000000	1,228132
1570,000000	1,167332
1569,000000	1,167329
1568,000000	1,213956
1567,000000	1,261453
1566,000000	1,281237
1565,000000	1,279707
1564,000000	1,275837
1563,000000	1,261162
1562,000000	1,190014
1561,000000	1,032273
1560,000000	0,842103
1559,000000	0,739304
1558,000000	0,791645
1557,000000	0,937331
1556,000000	1,057920
1555,000000	1,110100
1554,000000	1,142039
1553,000000	1,192876
1552,000000	1,237349
1551,000000	1,245983
1550,000000	1,241170
1549,000000	1,257276
1548,000000	1,279908
1547,000000	1,267872
1546,000000	1,215215
1545,000000	1,153136
1544,000000	1,099577
1543,000000	1,040369
1542,000000	0,962329
1541,000000	0,883587
1540,000000	0,848932
1539,000000	0,899770
1538,000000	1,033508
1537,000000	1,181383
1536,000000	1,250684
1535,000000	1,215783
1534,000000	1,149783
1533,000000	1,142565
1532,000000	1,202318
1531,000000	1,266809
1530,000000	1,288486
1529,000000	1,270534
1528,000000	1,232026
1527,000000	1,186843
1526,000000	1,154768
1525,000000	1,146599
1524,000000	1,133872
1523,000000	1,078203
1522,000000	1,001460
1521,000000	0,976849
1520,000000	1,031263
1519,000000	1,102619
1518,000000	1,125742
1517,000000	1,118293
1516,000000	1,138897
1515,000000	1,192922
1514,000000	1,230958
1513,000000	1,228301
1512,000000	1,210818
1511,000000	1,197608
1510,000000	1,161412
1509,000000	1,069283
1508,000000	0,941666
1507,000000	0,850606
1506,000000	0,861083
1505,000000	0,975832
1504,000000	1,130317
1503,000000	1,242062
1502,000000	1,272435
1501,000000	1,242217
1500,000000	1,190448
1499,000000	1,133153
1498,000000	1,072709
1497,000000	1,027936
1496,000000	1,028697
1495,000000	1,077945
1494,000000	1,137816
1493,000000	1,161400
1492,000000	1,134132
1491,000000	1,083334
1490,000000	1,052165
1489,000000	1,063146
1488,000000	1,105024
1487,000000	1,153881
1486,000000	1,200384
1485,000000	1,245646
1484,000000	1,279127
1483,000000	1,284970
1482,000000	1,271687
1481,000000	1,268591
1480,000000	1,282189
1479,000000	1,283279
1478,000000	1,252002
1477,000000	1,207287
1476,000000	1,170895
1475,000000	1,130348
1474,000000	1,071468
1473,000000	1,024257
1472,000000	1,037802
1471,000000	1,115527
1470,000000	1,208866
1469,000000	1,269681
1468,000000	1,281260
1467,000000	1,248421
1466,000000	1,192283
1465,000000	1,153639
1464,000000	1,165373
1463,000000	1,214660
1462,000000	1,252501
1461,000000	1,241501
1460,000000	1,174519
1459,000000	1,063358
1458,000000	0,943272
1457,000000	0,879478
1456,000000	0,920385
1455,000000	1,036806
1454,000000	1,143918
1453,000000	1,191885
1452,000000	1,201408
1451,000000	1,204500
1450,000000	1,198307
1449,000000	1,175541
1448,000000	1,159306
1447,000000	1,174896
1446,000000	1,211597
1445,000000	1,240372
1444,000000	1,251619
1443,000000	1,255384
1442,000000	1,258695
1441,000000	1,258935
1440,000000	1,245244
1439,000000	1,199774
1438,000000	1,120539
1437,000000	1,050057
1436,000000	1,048148
1435,000000	1,120569
1434,000000	1,202621
1433,000000	1,234076
1432,000000	1,220823
1431,000000	1,203351
1430,000000	1,199319
1429,000000	1,204580
1428,000000	1,219922
1427,000000	1,240399
1426,000000	1,242855
1425,000000	1,218739
1424,000000	1,197940
1423,000000	1,202279
1422,000000	1,199023
1421,000000	1,145291
1420,000000	1,063510
1419,000000	1,025084
1418,000000	1,060211
1417,000000	1,129977
1416,000000	1,186198
1415,000000	1,218501
1414,000000	1,234765
1413,000000	1,235646
1412,000000	1,225223
1411,000000	1,218001
1410,000000	1,219770
1409,000000	1,219375
1408,000000	1,207981
1407,000000	1,189113
1406,000000	1,168273
1405,000000	1,150675
1404,000000	1,148290
1403,000000	1,165537
1402,000000	1,179964
1401,000000	1,163739
1400,000000	1,126431
1399,000000	1,106004
1398,000000	1,113628
1397,000000	1,119487
1396,000000	1,103045
1395,000000	1,087099
1394,000000	1,102454
1393,000000	1,145005
1392,000000	1,185728
1391,000000	1,204371
1390,000000	1,196429
1389,000000	1,165678
1388,000000	1,129676
1387,000000	1,116934
1386,000000	1,138700
1385,000000	1,173197
1384,000000	1,193011
1383,000000	1,195894
1382,000000	1,195772
1381,000000	1,196524
1380,000000	1,193273
1379,000000	1,188568
1378,000000	1,187384
1377,000000	1,182505
1376,000000	1,163661
1375,000000	1,138854
1374,000000	1,129400
1373,000000	1,143700
1372,000000	1,167815
1371,000000	1,183640
1370,000000	1,186170
1369,000000	1,182328
1368,000000	1,180919
1367,000000	1,184020
1366,000000	1,183636
1365,000000	1,168878
1364,000000	1,140909
1363,000000	1,117266
1362,000000	1,114933
1361,000000	1,132580
1360,000000	1,155273
1359,000000	1,171629
1358,000000	1,179932
1357,000000	1,181622
1356,000000	1,178199
1355,000000	1,173715
1354,000000	1,172730
1353,000000	1,174852
1352,000000	1,175932
1351,000000	1,174391
1350,000000	1,172450
1349,000000	1,171930
1348,000000	1,172312
1347,000000	1,172618
1346,000000	1,172436
1345,000000	1,171399
1344,000000	1,168716
1343,000000	1,162300
1342,000000	1,149014
1341,000000	1,129230
1340,000000	1,111133
1339,000000	1,105546
1338,000000	1,114503
1337,000000	1,129534
1336,000000	1,142153
1335,000000	1,150946
1334,000000	1,157084
1333,000000	1,159255
1332,000000	1,157056
1331,000000	1,154014
1330,000000	1,153056
1329,000000	1,152546
1328,000000	1,150366
1327,000000	1,147944
1326,000000	1,147117
1325,000000	1,146698
1324,000000	1,145156
1323,000000	1,143045
1322,000000	1,140049
1321,000000	1,133755
1320,000000	1,124483
1319,000000	1,117378
1318,000000	1,116148
1317,000000	1,118239
1316,000000	1,119091
1315,000000	1,118001
1314,000000	1,116679
1313,000000	1,115540
1312,000000	1,114573
1311,000000	1,114785
1310,000000	1,115889
1309,000000	1,115407
1308,000000	1,112555
1307,000000	1,109937
1306,000000	1,109200
1305,000000	1,108289
1304,000000	1,105516
1303,000000	1,102628
1302,000000	1,101271
1301,000000	1,099721
1300,000000	1,096166
1299,000000	1,092132
1298,000000	1,089772
1297,000000	1,088467
1296,000000	1,086640
1295,000000	1,084450
1294,000000	1,082358
1293,000000	1,079645
1292,000000	1,076290
1291,000000	1,073777
1290,000000	1,072265
1289,000000	1,069870
1288,000000	1,066200
1287,000000	1,063517
1286,000000	1,062642
1285,000000	1,061195
1284,000000	1,057689
1283,000000	1,053885
1282,000000	1,051182
1281,000000	1,048181
1280,000000	1,044048
1279,000000	1,040655
1278,000000	1,039023
1277,000000	1,036882
1276,000000	1,032295
1275,000000	1,026576
1274,000000	1,021370
1273,000000	1,015876
1272,000000	1,009377
1271,000000	1,003510
1270,000000	0,999447
1269,000000	0,995563
1268,000000	0,990176
1267,000000	0,984193
1266,000000	0,978860
1265,000000	0,973516
1264,000000	0,967468
1263,000000	0,961685
1262,000000	0,956858
1261,000000	0,952384
1260,000000	0,948742
1259,000000	0,947909
1258,000000	0,949808
1257,000000	0,951382
1256,000000	0,950876
1255,000000	0,949909
1254,000000	0,949705
1253,000000	0,948650
1252,000000	0,945692
1251,000000	0,942757
1250,000000	0,941406
1249,000000	0,940035
1248,000000	0,936840
1247,000000	0,932801
1246,000000	0,929503
1245,000000	0,926580
1244,000000	0,923406
1243,000000	0,920710
1242,000000	0,918517
1241,000000	0,915193
1240,000000	0,910407
1239,000000	0,906362
1238,000000	0,904141
1237,000000	0,901765
1236,000000	0,897773
1235,000000	0,893780
1234,000000	0,891255
1233,000000	0,888762
1232,000000	0,884850
1231,000000	0,880928
1230,000000	0,878644
1229,000000	0,876764
1228,000000	0,873240
1227,000000	0,868365
1226,000000	0,863613
1225,000000	0,859202
1224,000000	0,854878
1223,000000	0,851250
1222,000000	0,848480
1221,000000	0,845422
1220,000000	0,841628
1219,000000	0,838284
1218,000000	0,835844
1217,000000	0,832953
1216,000000	0,828990
1215,000000	0,825306
1214,000000	0,822591
1213,000000	0,819538
1212,000000	0,815501
1211,000000	0,811824
1210,000000	0,809036
1209,000000	0,805577
1208,000000	0,800968
1207,000000	0,797392
1206,000000	0,796173
1205,000000	0,795446
1204,000000	0,793306
1203,000000	0,790618
1202,000000	0,788716
1201,000000	0,786846
1200,000000	0,784123
1199,000000	0,781578
1198,000000	0,780102
1197,000000	0,778515
1196,000000	0,775724
1195,000000	0,772642
1194,000000	0,770092
1193,000000	0,767057
1192,000000	0,762825
1191,000000	0,758684
1190,000000	0,755587
1189,000000	0,752382
1188,000000	0,748232
1187,000000	0,744509
1186,000000	0,742313
1185,000000	0,740308
1184,000000	0,736959
1183,000000	0,732841
1182,000000	0,728972
1181,000000	0,725043
1180,000000	0,721048
1179,000000	0,718339
1178,000000	0,717127
1177,000000	0,715272
1176,000000	0,711540
1175,000000	0,707795
1174,000000	0,705994
1173,000000	0,705186
1172,000000	0,703558
1171,000000	0,701188
1170,000000	0,698649
1169,000000	0,695135
1168,000000	0,690299
1167,000000	0,685992
1166,000000	0,683836
1165,000000	0,682775
1164,000000	0,681041
1163,000000	0,678731
1162,000000	0,676475
1161,000000	0,673573
1160,000000	0,669663
1159,000000	0,666353
1158,000000	0,664914
1157,000000	0,664008
1156,000000	0,661843
1155,000000	0,658960
1154,000000	0,656742
1153,000000	0,654876
1152,000000	0,652495
1151,000000	0,650280
1150,000000	0,649141
1149,000000	0,648211
1148,000000	0,646280
1147,000000	0,643967
1146,000000	0,642398
1145,000000	0,641062
1144,000000	0,638992
1143,000000	0,636834
1142,000000	0,635715
1141,000000	0,635133
1140,000000	0,633888
1139,000000	0,632068
1138,000000	0,630370
1137,000000	0,628489
1136,000000	0,625907
1135,000000	0,623211
1134,000000	0,621045
1133,000000	0,618765
1132,000000	0,615727
1131,000000	0,612790
1130,000000	0,611032
1129,000000	0,609995
1128,000000	0,608618
1127,000000	0,606866
1126,000000	0,604986
1125,000000	0,602332
1124,000000	0,598422
1123,000000	0,594259
1122,000000	0,591186
1121,000000	0,589211
1120,000000	0,587525
1119,000000	0,585736
1118,000000	0,583610
1117,000000	0,580711
1116,000000	0,577330
1115,000000	0,574660
1114,000000	0,573202
1113,000000	0,572057
1112,000000	0,570424
1111,000000	0,568406
1110,000000	0,565832
1109,000000	0,562013
1108,000000	0,557503
1107,000000	0,554182
1106,000000	0,552606
1105,000000	0,551116
1104,000000	0,548634
1103,000000	0,546297
1102,000000	0,545064
1101,000000	0,543793
1100,000000	0,541236
1099,000000	0,538185
1098,000000	0,535963
1097,000000	0,534444
1096,000000	0,533025
1095,000000	0,532006
1094,000000	0,531453
1093,000000	0,530279
1092,000000	0,527983
1091,000000	0,525877
1090,000000	0,525094
1089,000000	0,524853
1088,000000	0,524102
1087,000000	0,523213
1086,000000	0,522562
1085,000000	0,521098
1084,000000	0,518179
1083,000000	0,515281
1082,000000	0,514065
1081,000000	0,513953
1080,000000	0,513393
1079,000000	0,512263
1078,000000	0,511305
1077,000000	0,510380
1076,000000	0,509093
1075,000000	0,508162
1074,000000	0,508375
1073,000000	0,509124
1072,000000	0,509458
1071,000000	0,509670
1070,000000	0,510323
1069,000000	0,510767
1068,000000	0,510248
1067,000000	0,509594
1066,000000	0,510175
1065,000000	0,511864
1064,000000	0,513524
1063,000000	0,514820
1062,000000	0,516160
1061,000000	0,517439
1060,000000	0,518200
1059,000000	0,518538
1058,000000	0,518693
1057,000000	0,518170
1056,000000	0,516357
1055,000000	0,513488
1054,000000	0,510223
1053,000000	0,506866
1052,000000	0,503830
1051,000000	0,502186
1050,000000	0,502994
1049,000000	0,506478
1048,000000	0,512168
1047,000000	0,519051
1046,000000	0,525341
1045,000000	0,529470
1044,000000	0,531820
1043,000000	0,534282
1042,000000	0,537587
1041,000000	0,540533
1040,000000	0,542297
1039,000000	0,543840
1038,000000	0,546133
1037,000000	0,548544
1036,000000	0,550177
1035,000000	0,551317
1034,000000	0,552498
1033,000000	0,553415
1032,000000	0,553899
1031,000000	0,554680
1030,000000	0,556117
1029,000000	0,557346
1028,000000	0,557811
1027,000000	0,558355
1026,000000	0,559756
1025,000000	0,561355
1024,000000	0,562336
1023,000000	0,563253
1022,000000	0,565035
1021,000000	0,567497
1020,000000	0,569849
1019,000000	0,571793
1018,000000	0,573212
1017,000000	0,573913
1016,000000	0,574471
1015,000000	0,576166
1014,000000	0,579093
1013,000000	0,581690
1012,000000	0,583006
1011,000000	0,584104
1010,000000	0,586159
1009,000000	0,588552
1008,000000	0,590209
1007,000000	0,591461
1006,000000	0,593157
1005,000000	0,594964
1004,000000	0,596028
1003,000000	0,596457
1002,000000	0,596854
1001,000000	0,597184
1000,000000	0,597296
999,000000	0,597705
998,000000	0,598663
997,000000	0,599253
996,000000	0,598588
995,000000	0,597262
994,000000	0,596386
993,000000	0,595958
992,000000	0,595230
991,000000	0,594075
990,000000	0,592935
989,000000	0,591971
988,000000	0,591209
987,000000	0,590949
986,000000	0,591126
985,000000	0,590855
984,000000	0,589391
983,000000	0,587064
982,000000	0,584671
981,000000	0,582498
980,000000	0,580513
979,000000	0,578802
978,000000	0,577303
977,000000	0,575775
976,000000	0,574392
975,000000	0,573527
974,000000	0,572667
973,000000	0,570627
972,000000	0,567358
971,000000	0,564347
970,000000	0,562651
969,000000	0,561694
968,000000	0,560485
967,000000	0,558888
966,000000	0,557009
965,000000	0,554630
964,000000	0,551975
963,000000	0,549927
962,000000	0,548688
961,000000	0,547351
960,000000	0,545362
959,000000	0,543214
958,000000	0,541134
957,000000	0,538503
956,000000	0,535363
955,000000	0,532952
954,000000	0,531821
953,000000	0,530728
952,000000	0,528558
951,000000	0,525937
950,000000	0,523940
949,000000	0,522435
948,000000	0,520840
947,000000	0,519323
946,000000	0,518079
945,000000	0,516543
944,000000	0,514389
943,000000	0,512304
942,000000	0,510756
941,000000	0,509174
940,000000	0,507212
939,000000	0,505566
938,000000	0,504456
937,000000	0,502761
936,000000	0,499884
935,000000	0,497174
934,000000	0,495980
933,000000	0,495495
932,000000	0,494168
931,000000	0,492091
930,000000	0,490491
929,000000	0,489596
928,000000	0,488637
927,000000	0,487273
926,000000	0,485632
925,000000	0,483563
924,000000	0,481130
923,000000	0,479205
922,000000	0,478377
921,000000	0,477837
920,000000	0,476429
919,000000	0,474202
918,000000	0,471830
917,000000	0,469380
916,000000	0,466741
915,000000	0,464462
914,000000	0,462899
913,000000	0,461295
912,000000	0,458900
911,000000	0,456315
910,000000	0,454531
909,000000	0,453366
908,000000	0,452101
907,000000	0,450854
906,000000	0,450050
905,000000	0,449136
904,000000	0,447270
903,000000	0,444711
902,000000	0,442341
901,000000	0,440345
900,000000	0,438585
899,000000	0,437621
898,000000	0,437886
897,000000	0,438374
896,000000	0,437665
895,000000	0,435941
894,000000	0,434514
893,000000	0,433686
892,000000	0,432472
891,000000	0,430408
890,000000	0,428190
889,000000	0,426430
888,000000	0,424981
887,000000	0,423643
886,000000	0,422476
885,000000	0,421165
884,000000	0,419052
883,000000	0,416067
882,000000	0,412842
881,000000	0,409795
880,000000	0,406784
879,000000	0,403816
878,000000	0,401440
877,000000	0,400149
876,000000	0,399807
875,000000	0,399938
874,000000	0,400304
873,000000	0,401028
872,000000	0,402225
871,000000	0,403557
870,000000	0,404351
869,000000	0,404391
868,000000	0,404405
867,000000	0,405220
866,000000	0,406592
865,000000	0,407557
864,000000	0,407795
863,000000	0,407829
862,000000	0,407871
861,000000	0,407502
860,000000	0,406651
859,000000	0,405846
858,000000	0,405117
857,000000	0,403769
856,000000	0,401788
855,000000	0,400376
854,000000	0,400342
853,000000	0,400905
852,000000	0,400933
851,000000	0,400436
850,000000	0,399974
849,000000	0,399454
848,000000	0,398497
847,000000	0,397393
846,000000	0,396763
845,000000	0,396626
844,000000	0,396588
843,000000	0,396530
842,000000	0,396414
841,000000	0,395853
840,000000	0,394527
839,000000	0,392764
838,000000	0,391152
837,000000	0,389781
836,000000	0,388286
835,000000	0,386269
834,000000	0,383463
833,000000	0,379996
832,000000	0,376699
831,000000	0,374436
830,000000	0,372834
829,000000	0,370563
828,000000	0,367182
827,000000	0,363773
826,000000	0,361346
825,000000	0,359636
824,000000	0,358267
823,000000	0,357948
822,000000	0,359512
821,000000	0,362484
820,000000	0,365625
819,000000	0,368315
818,000000	0,370494
817,000000	0,371844
816,000000	0,372089
815,000000	0,371683
814,000000	0,371353
813,000000	0,371264
812,000000	0,371314
811,000000	0,371671
810,000000	0,372222
809,000000	0,372018
808,000000	0,370335
807,000000	0,368004
806,000000	0,366690
805,000000	0,366933
804,000000	0,367673
803,000000	0,367664
802,000000	0,366703
801,000000	0,365493
800,000000	0,364837
799,000000	0,364937
798,000000	0,365153
797,000000	0,364656
796,000000	0,363538
795,000000	0,362833
794,000000	0,363209
793,000000	0,364189
792,000000	0,365072
791,000000	0,365904
790,000000	0,366915
789,000000	0,367651
788,000000	0,367548
787,000000	0,366941
786,000000	0,366665
785,000000	0,366916
784,000000	0,367254
783,000000	0,367471
782,000000	0,367672
781,000000	0,367716
780,000000	0,367382
779,000000	0,366980
778,000000	0,367047
777,000000	0,367483
776,000000	0,367638
775,000000	0,367277
774,000000	0,366865
773,000000	0,366800
772,000000	0,366959
771,000000	0,367113
770,000000	0,367237
769,000000	0,367259
768,000000	0,366978
767,000000	0,366408
766,000000	0,365872
765,000000	0,365585
764,000000	0,365417
763,000000	0,365196
762,000000	0,364980
761,000000	0,364834
760,000000	0,364504
759,000000	0,363524
758,000000	0,361717
757,000000	0,359576
756,000000	0,357992
755,000000	0,357484
754,000000	0,357713
753,000000	0,357881
752,000000	0,357609
751,000000	0,357095
750,000000	0,356503
749,000000	0,355703
748,000000	0,354765
747,000000	0,354148
746,000000	0,353967
745,000000	0,353546
744,000000	0,352221
743,000000	0,350358
742,000000	0,348988
741,000000	0,348561
740,000000	0,348611
739,000000	0,348526
738,000000	0,348066
737,000000	0,347146
736,000000	0,345767
735,000000	0,344347
734,000000	0,343535
733,000000	0,343366
732,000000	0,343114
731,000000	0,342321
730,000000	0,341422
729,000000	0,340909
728,000000	0,340442
727,000000	0,339561
726,000000	0,338769
725,000000	0,338763
724,000000	0,338683
723,000000	0,336504
722,000000	0,331768
721,000000	0,326898
720,000000	0,324900
719,000000	0,326196
718,000000	0,328557
717,000000	0,329749
716,000000	0,329341
715,000000	0,328154
714,000000	0,326963
713,000000	0,326080
712,000000	0,325507
711,000000	0,325019
710,000000	0,324243
709,000000	0,322910
708,000000	0,321100
707,000000	0,319294
706,000000	0,318080
705,000000	0,317518
704,000000	0,316840
703,000000	0,315229
702,000000	0,312824
701,000000	0,310437
700,000000	0,308291
699,000000	0,305913
698,000000	0,303339
697,000000	0,301242
696,000000	0,299582
695,000000	0,297378
694,000000	0,294394
693,000000	0,291589
692,000000	0,289181
691,000000	0,285829
690,000000	0,280900
689,000000	0,275992
688,000000	0,272820
687,000000	0,271059
686,000000	0,269675
685,000000	0,268804
684,000000	0,268514
683,000000	0,267627
682,000000	0,265788
681,000000	0,264914
680,000000	0,266100
679,000000	0,267238
678,000000	0,266397
677,000000	0,265199
676,000000	0,265540
675,000000	0,265907
674,000000	0,265055
673,000000	0,265015
672,000000	0,263731
671,000000	0,249141
670,000000	0,213001
669,000000	0,170817
668,000000	0,154927
667,000000	0,180302
666,000000	0,225993
665,000000	0,258877
664,000000	0,267330
663,000000	0,263666
662,000000	0,260505
661,000000	0,258269
660,000000	0,254539
659,000000	0,251843
658,000000	0,252335
657,000000	0,253017
656,000000	0,250954
655,000000	0,247815
654,000000	0,246143
653,000000	0,245288
652,000000	0,243894
651,000000	0,242697
650,000000	0,242399
649,000000	0,241964
648,000000	0,241068
647,000000	0,241344
646,000000	0,243306
645,000000	0,244886
644,000000	0,244640
643,000000	0,243914
642,000000	0,244136
641,000000	0,244556
640,000000	0,244190
639,000000	0,243618
638,000000	0,243269
637,000000	0,242227
636,000000	0,240315
635,000000	0,239154
634,000000	0,239638
633,000000	0,240305
632,000000	0,239711
631,000000	0,238396
630,000000	0,237278
629,000000	0,235988
628,000000	0,234263
627,000000	0,233007
626,000000	0,232579
625,000000	0,231777
624,000000	0,229928
623,000000	0,228224
622,000000	0,227546
621,000000	0,226658
620,000000	0,224084
619,000000	0,220492
618,000000	0,217677
617,000000	0,216396
616,000000	0,216300
615,000000	0,216796
614,000000	0,216912
613,000000	0,215562
612,000000	0,212926
611,000000	0,210445
610,000000	0,208714
609,000000	0,206807
608,000000	0,204337
607,000000	0,202334
606,000000	0,201199
605,000000	0,199658
604,000000	0,197077
603,000000	0,194976
602,000000	0,194818
601,000000	0,195687
600,000000	0,195794
599,000000	0,194942
598,000000	0,193951
597,000000	0,192868
596,000000	0,191271
595,000000	0,189453
594,000000	0,187833
593,000000	0,186087
592,000000	0,183996
591,000000	0,182356
590,000000	0,181853
589,000000	0,181796
588,000000	0,181031
587,000000	0,179473
586,000000	0,177793
585,000000	0,176257
584,000000	0,174747
583,000000	0,173227
582,000000	0,171516
581,000000	0,169358
580,000000	0,167146
579,000000	0,165664
578,000000	0,164727
577,000000	0,163230
576,000000	0,161056
575,000000	0,159382
574,000000	0,158578
573,000000	0,157349
572,000000	0,154948
571,000000	0,152562
570,000000	0,151319
569,000000	0,150497
568,000000	0,148983
567,000000	0,147193
566,000000	0,146009
565,000000	0,145116
564,000000	0,143860
563,000000	0,142744
562,000000	0,142452
561,000000	0,142290
560,000000	0,141101
559,000000	0,139082
558,000000	0,137286
557,000000	0,135878
556,000000	0,134275
555,000000	0,132456
554,000000	0,130926
553,000000	0,129776
552,000000	0,128756
551,000000	0,127805
550,000000	0,126673
549,000000	0,124715
548,000000	0,122016
547,000000	0,119952
546,000000	0,119565
545,000000	0,120055
544,000000	0,119871
543,000000	0,118666
542,000000	0,117178
541,000000	0,115908
540,000000	0,114945
539,000000	0,114497
538,000000	0,114461
537,000000	0,113998
536,000000	0,112584
535,000000	0,110944
534,000000	0,109937
533,000000	0,109169
532,000000	0,107788
531,000000	0,105940
530,000000	0,104323
529,000000	0,102826
528,000000	0,100898
527,000000	0,098726
526,000000	0,096950
525,000000	0,095509
524,000000	0,093917
523,000000	0,092341
522,000000	0,091277
521,000000	0,090473
520,000000	0,089181
519,000000	0,087505
518,000000	0,086369
517,000000	0,086159
516,000000	0,086290
515,000000	0,086157
514,000000	0,085681
513,000000	0,084967
512,000000	0,084154
511,000000	0,083533
510,000000	0,083210
509,000000	0,082795
508,000000	0,081926
507,000000	0,080896
506,000000	0,080141
505,000000	0,079355
504,000000	0,077904
503,000000	0,076118
502,000000	0,075283
501,000000	0,076061
500,000000	0,077516
499,000000	0,077994
498,000000	0,076674
497,000000	0,074289
496,000000	0,072343
495,000000	0,071662
494,000000	0,071752
493,000000	0,071535
492,000000	0,070648
491,000000	0,069480
490,000000	0,068192
489,000000	0,066534
488,000000	0,064681
487,000000	0,063327
486,000000	0,062749
485,000000	0,062396
484,000000	0,061756
483,000000	0,061019
482,000000	0,060449
481,000000	0,059788
480,000000	0,058757
479,000000	0,057493
478,000000	0,056075
477,000000	0,054230
476,000000	0,052025
475,000000	0,050119
474,000000	0,048943
473,000000	0,048273
472,000000	0,047884
471,000000	0,047874
470,000000	0,048091
469,000000	0,048061
468,000000	0,047702
467,000000	0,047431
466,000000	0,047292
465,000000	0,046698
464,000000	0,045648
463,000000	0,045197
462,000000	0,045806
461,000000	0,046255
460,000000	0,045147
459,000000	0,043134
458,000000	0,042152
457,000000	0,043018
456,000000	0,044874
455,000000	0,046379
454,000000	0,047022
453,000000	0,046926
452,000000	0,046396
451,000000	0,045863
450,000000	0,045588
449,000000	0,045384
448,000000	0,044946
447,000000	0,044127
446,000000	0,042839
445,000000	0,041105
444,000000	0,039486
443,000000	0,038895
442,000000	0,039597
441,000000	0,040820
440,000000	0,041512
439,000000	0,041183
438,000000	0,039887
437,000000	0,038050
436,000000	0,036583
435,000000	0,036309
434,000000	0,036869
433,000000	0,036897
432,000000	0,035765
431,000000	0,034463
430,000000	0,034295
429,000000	0,035158
428,000000	0,035745
427,000000	0,035036
426,000000	0,033087
425,000000	0,030698
424,000000	0,028889
423,000000	0,028179
422,000000	0,027837
421,000000	0,026421
420,000000	0,023797
419,000000	0,021724
418,000000	0,021860
417,000000	0,023695
416,000000	0,025320
415,000000	0,025879
414,000000	0,026022
413,000000	0,026202
412,000000	0,025812
411,000000	0,024447
410,000000	0,022730
409,000000	0,021550
408,000000	0,020957
407,000000	0,020321
406,000000	0,019508
405,000000	0,018961
404,000000	0,018862
403,000000	0,018495
402,000000	0,017145
401,000000	0,014822
400,000000	0,012246
399,000000	0,010327
398,000000	0,009593
397,000000	0,010105
396,000000	0,011654
395,000000	0,013210
394,000000	0,013708
393,000000	0,013375
392,000000	0,013164
391,000000	0,013099
390,000000	0,012121
389,000000	0,009950
388,000000	0,007988
387,000000	0,007450
386,000000	0,007834
385,000000	0,007873
384,000000	0,007264
383,000000	0,006895
382,000000	0,006588
381,000000	0,005934
380,000000	0,005970
379,000000	0,007213
378,000000	0,008387
377,000000	0,007814
376,000000	0,005822
375,000000	0,004391
374,000000	0,004221
373,000000	0,004156
372,000000	0,003736
371,000000	0,003781
370,000000	0,004697
369,000000	0,005497
368,000000	0,005280
367,000000	0,004516
366,000000	0,003953
365,000000	0,003278
364,000000	0,002602
363,000000	0,002278
362,000000	0,001356
361,000000	0,000804
360,000000	0,000523
359,000000	0,000335
358,000000	0,000481
357,000000	0,001674
356,000000	0,001627
355,000000	0,001672
354,000000	0,002518
353,000000	0,003274
352,000000	0,003224
351,000000	0,002131
350,000000	0,001386
349,000000	0,001361
348,000000	0,001951
347,000000	0,002685
346,000000	0,003437
345,000000	0,004332
344,000000	0,004253
343,000000	0,002791
342,000000	0,002802
341,000000	0,002980
340,000000	0,001909
339,000000	0,002300
338,000000	0,002659
337,000000	0,002048
336,000000	0,001652
335,000000	0,001430
334,000000	0,000881
333,000000	0,000443
332,000000	0,002540
331,000000	0,004476
330,000000	0,004859
329,000000	0,003897
328,000000	0,002849
327,000000	0,002014
326,000000	0,001558
325,000000	0,001668
324,000000	0,001621
323,000000	0,001545
322,000000	0,001042
321,000000	0,000748
320,000000	0,001215
319,000000	0,001194
318,000000	0,000498
317,000000	0,001976
316,000000	0,009433
315,000000	0,018562
314,000000	0,021687
313,000000	0,015607
312,000000	0,005984
311,000000	0,000790
310,000000	0,001475
309,000000	0,001320
308,000000	0,001232
307,000000	0,001921
306,000000	0,001754
305,000000	0,001199
304,000000	0,000562
303,000000	0,000936
302,000000	0,000378
301,000000	0,001636
300,000000	0,001920
