PE IR       SUBTECH     SPECTRUM    ASCII       PEDS        4.00        
   -1
znO EMOTY.ASC
25/06/17
10:32:51.00
25/06/17
10:32:51.00
Praktikum
Sample 024 By Praktikum date Dienstag, Juni 17 2025
300,000000
#HDR
-1
-1
#GR
cm-1
EGY
1.0
0.0
4000,000000
-1,000000
3701
8
58,265467
0,004015
#DATA
4000,000000	39,540374
3999,000000	39,545983
3998,000000	39,535198
3997,000000	39,516808
3996,000000	39,507231
3995,000000	39,514841
3994,000000	39,531046
3993,000000	39,542777
3992,000000	39,551566
3991,000000	39,574000
3990,000000	39,621047
3989,000000	39,682577
3988,000000	39,735904
3987,000000	39,765775
3986,000000	39,772760
3985,000000	39,767176
3984,000000	39,761623
3983,000000	39,767599
3982,000000	39,790604
3981,000000	39,823173
3980,000000	39,846107
3979,000000	39,841394
3978,000000	39,807376
3977,000000	39,761918
3976,000000	39,730519
3975,000000	39,730052
3974,000000	39,759291
3973,000000	39,802916
3972,000000	39,845697
3971,000000	39,884376
3970,000000	39,927385
3969,000000	39,982929
3968,000000	40,044701
3967,000000	40,087903
3966,000000	40,082813
3965,000000	40,020578
3964,000000	39,931458
3963,000000	39,870886
3962,000000	39,877107
3961,000000	39,940160
3960,000000	40,015988
3959,000000	40,069569
3958,000000	40,100121
3957,000000	40,124907
3956,000000	40,147159
3955,000000	40,144172
3954,000000	40,080436
3953,000000	39,931699
3952,000000	39,709720
3951,000000	39,478495
3950,000000	39,338418
3949,000000	39,363882
3948,000000	39,525783
3947,000000	39,679145
3946,000000	39,671578
3945,000000	39,493454
3944,000000	39,317307
3943,000000	39,352228
3942,000000	39,642815
3941,000000	40,035768
3940,000000	40,344169
3939,000000	40,500920
3938,000000	40,531090
3937,000000	40,426136
3936,000000	40,127674
3935,000000	39,652016
3934,000000	39,168015
3933,000000	38,906851
3932,000000	38,990603
3931,000000	39,350467
3930,000000	39,775172
3929,000000	40,027441
3928,000000	39,983525
3927,000000	39,724456
3926,000000	39,480586
3925,000000	39,440610
3924,000000	39,580839
3923,000000	39,698467
3922,000000	39,605906
3921,000000	39,281138
3920,000000	38,866767
3919,000000	38,577547
3918,000000	38,606852
3917,000000	39,027040
3916,000000	39,719091
3915,000000	40,421781
3914,000000	40,904245
3913,000000	41,120736
3912,000000	41,179915
3911,000000	41,169512
3910,000000	41,026252
3909,000000	40,567569
3908,000000	39,646138
3907,000000	38,314456
3906,000000	36,875471
3905,000000	35,739662
3904,000000	35,158487
3903,000000	35,086488
3902,000000	35,332627
3901,000000	35,826099
3900,000000	36,666861
3899,000000	37,881541
3898,000000	39,214582
3897,000000	40,213272
3896,000000	40,503628
3895,000000	39,999826
3894,000000	38,978131
3893,000000	38,025819
3892,000000	37,747864
3891,000000	38,260134
3890,000000	38,940531
3889,000000	38,944794
3888,000000	38,074368
3887,000000	37,054972
3886,000000	36,777412
3885,000000	37,349018
3884,000000	38,048293
3883,000000	38,193188
3882,000000	37,889610
3881,000000	37,841859
3880,000000	38,501236
3879,000000	39,536847
3878,000000	40,166937
3877,000000	39,960120
3876,000000	39,217243
3875,000000	38,494070
3874,000000	37,903708
3873,000000	37,109808
3872,000000	36,039828
3871,000000	35,284635
3870,000000	35,493591
3869,000000	36,506531
3868,000000	37,426647
3867,000000	37,590490
3866,000000	37,221864
3865,000000	37,038223
3864,000000	37,437345
3863,000000	38,269641
3862,000000	39,190921
3861,000000	39,957597
3860,000000	40,333189
3859,000000	39,919136
3858,000000	38,276665
3857,000000	35,339578
3856,000000	31,811683
3855,000000	29,088574
3854,000000	28,499428
3853,000000	30,363957
3852,000000	33,749504
3851,000000	37,196517
3850,000000	39,709863
3849,000000	41,075225
3848,000000	41,495087
3847,000000	41,204181
3846,000000	40,458805
3845,000000	39,589338
3844,000000	38,837914
3843,000000	38,159788
3842,000000	37,303229
3841,000000	36,138885
3840,000000	34,919089
3839,000000	34,181687
3838,000000	34,355964
3837,000000	35,382201
3836,000000	36,720045
3835,000000	37,780202
3834,000000	38,379124
3833,000000	38,780508
3832,000000	39,307310
3831,000000	39,973114
3830,000000	40,495816
3829,000000	40,658133
3828,000000	40,571629
3827,000000	40,486975
3826,000000	40,331661
3825,000000	39,612675
3824,000000	38,028845
3823,000000	36,147555
3822,000000	35,123863
3821,000000	35,528739
3820,000000	36,617863
3819,000000	37,125290
3818,000000	36,700047
3817,000000	36,282041
3816,000000	36,970527
3815,000000	38,811665
3814,000000	40,885663
3813,000000	42,273048
3812,000000	42,645272
3811,000000	42,051554
3810,000000	40,677501
3809,000000	39,019197
3808,000000	37,919172
3807,000000	37,922954
3806,000000	38,552137
3805,000000	38,621260
3804,000000	37,518884
3803,000000	36,016943
3802,000000	35,515748
3801,000000	36,539387
3800,000000	38,264834
3799,000000	39,530742
3798,000000	40,040609
3797,000000	40,360239
3796,000000	41,026805
3795,000000	41,973858
3794,000000	42,792531
3793,000000	43,243143
3792,000000	43,387929
3791,000000	43,394049
3790,000000	43,348393
3789,000000	43,229854
3788,000000	42,992096
3787,000000	42,685290
3786,000000	42,473633
3785,000000	42,471731
3784,000000	42,544429
3783,000000	42,383840
3782,000000	41,861582
3781,000000	41,259778
3780,000000	41,064286
3779,000000	41,504700
3778,000000	42,347140
3777,000000	43,137066
3776,000000	43,571663
3775,000000	43,581023
3774,000000	43,141630
3773,000000	42,233109
3772,000000	41,077282
3771,000000	40,211047
3770,000000	40,056463
3769,000000	40,458105
3768,000000	40,884587
3767,000000	41,105552
3766,000000	41,385744
3765,000000	41,923602
3764,000000	42,382608
3763,000000	42,253090
3762,000000	41,499774
3761,000000	40,619004
3760,000000	40,134092
3759,000000	40,212093
3758,000000	40,638815
3757,000000	40,899900
3756,000000	40,362376
3755,000000	38,707480
3754,000000	36,280752
3753,000000	33,918941
3752,000000	32,439063
3751,000000	32,284179
3750,000000	33,331202
3749,000000	34,718589
3748,000000	35,149527
3747,000000	33,998880
3746,000000	32,240611
3745,000000	31,774876
3744,000000	33,541802
3743,000000	36,594068
3742,000000	39,136658
3741,000000	40,084000
3740,000000	39,464207
3739,000000	37,832626
3738,000000	35,873031
3737,000000	34,341992
3736,000000	33,771493
3735,000000	34,108060
3734,000000	34,944437
3733,000000	36,090670
3732,000000	37,585455
3731,000000	39,176684
3730,000000	40,220687
3729,000000	40,326563
3728,000000	39,823758
3727,000000	39,380470
3726,000000	39,321262
3725,000000	39,505355
3724,000000	39,739829
3723,000000	40,050673
3722,000000	40,539342
3721,000000	41,181336
3720,000000	41,857940
3719,000000	42,482009
3718,000000	42,956237
3717,000000	43,022019
3716,000000	42,312397
3715,000000	40,716826
3714,000000	38,693550
3713,000000	37,096146
3712,000000	36,597586
3711,000000	37,262793
3710,000000	38,664348
3709,000000	40,276120
3708,000000	41,692757
3707,000000	42,620059
3706,000000	42,856147
3705,000000	42,412555
3704,000000	41,608855
3703,000000	40,980259
3702,000000	40,980008
3701,000000	41,643697
3700,000000	42,554679
3699,000000	43,216899
3698,000000	43,478455
3697,000000	43,507053
3696,000000	43,385370
3695,000000	42,916495
3694,000000	41,887568
3693,000000	40,350375
3692,000000	38,587420
3691,000000	37,013811
3690,000000	36,199095
3689,000000	36,698935
3688,000000	38,540927
3687,000000	40,970344
3686,000000	42,985272
3685,000000	44,092606
3684,000000	44,422120
3683,000000	44,268384
3682,000000	43,792352
3681,000000	43,033822
3680,000000	41,865038
3679,000000	39,997411
3678,000000	37,503087
3677,000000	35,331223
3676,000000	34,772360
3675,000000	36,039752
3674,000000	37,769092
3673,000000	38,366819
3672,000000	37,688164
3671,000000	37,067533
3670,000000	37,771308
3669,000000	39,793327
3668,000000	42,165914
3667,000000	44,002852
3666,000000	45,038359
3665,000000	45,451540
3664,000000	45,527099
3663,000000	45,496477
3662,000000	45,439426
3661,000000	45,200405
3660,000000	44,493658
3659,000000	43,255775
3658,000000	41,947303
3657,000000	41,320352
3656,000000	41,675466
3655,000000	42,351245
3654,000000	42,146406
3653,000000	40,439858
3652,000000	37,815470
3651,000000	35,563409
3650,000000	34,680868
3649,000000	35,375401
3648,000000	37,282168
3647,000000	39,785260
3646,000000	42,162846
3645,000000	43,818902
3644,000000	44,611719
3643,000000	44,857884
3642,000000	44,934523
3641,000000	44,968076
3640,000000	44,934393
3639,000000	44,850627
3638,000000	44,713136
3637,000000	44,420906
3636,000000	43,950730
3635,000000	43,451533
3634,000000	42,906791
3633,000000	41,844469
3632,000000	39,805554
3631,000000	37,230505
3630,000000	35,501694
3629,000000	35,800884
3628,000000	37,980499
3627,000000	40,756859
3626,000000	42,873459
3625,000000	43,875074
3624,000000	43,877657
3623,000000	43,080044
3622,000000	41,738986
3621,000000	40,390823
3620,000000	39,715069
3619,000000	40,037018
3618,000000	41,017871
3617,000000	41,923067
3616,000000	42,233168
3615,000000	42,006358
3614,000000	41,666713
3613,000000	41,486097
3612,000000	41,350136
3611,000000	41,059731
3610,000000	40,753889
3609,000000	40,864917
3608,000000	41,634606
3607,000000	42,810659
3606,000000	43,865103
3605,000000	44,429783
3604,000000	44,474321
3603,000000	44,195377
3602,000000	43,858698
3601,000000	43,672236
3600,000000	43,663789
3599,000000	43,667876
3598,000000	43,509442
3597,000000	43,215636
3596,000000	43,014995
3595,000000	43,120429
3594,000000	43,515376
3593,000000	43,898339
3592,000000	43,828306
3591,000000	43,038646
3590,000000	41,758210
3589,000000	40,684944
3588,000000	40,503808
3587,000000	41,353259
3586,000000	42,770371
3585,000000	44,117444
3584,000000	45,011444
3583,000000	45,424389
3582,000000	45,529755
3581,000000	45,528153
3580,000000	45,542253
3579,000000	45,590541
3578,000000	45,637704
3577,000000	45,672856
3576,000000	45,724852
3575,000000	45,811220
3574,000000	45,891437
3573,000000	45,841897
3572,000000	45,452318
3571,000000	44,532245
3570,000000	43,154079
3569,000000	41,798421
3568,000000	41,112935
3567,000000	41,428183
3566,000000	42,501848
3565,000000	43,753181
3564,000000	44,705361
3563,000000	45,228790
3562,000000	45,461316
3561,000000	45,605243
3560,000000	45,781043
3559,000000	45,990826
3558,000000	46,158748
3557,000000	46,196080
3556,000000	46,055579
3555,000000	45,772144
3554,000000	45,482143
3553,000000	45,361230
3552,000000	45,465495
3551,000000	45,630089
3550,000000	45,590977
3549,000000	45,249747
3548,000000	44,787265
3547,000000	44,502956
3546,000000	44,569410
3545,000000	44,946325
3544,000000	45,466229
3543,000000	45,953889
3542,000000	46,294546
3541,000000	46,449010
3540,000000	46,435980
3539,000000	46,309670
3538,000000	46,158685
3537,000000	46,091803
3536,000000	46,167069
3535,000000	46,323438
3534,000000	46,419460
3533,000000	46,358720
3532,000000	46,154749
3531,000000	45,883298
3530,000000	45,619570
3529,000000	45,428862
3528,000000	45,350882
3527,000000	45,357141
3526,000000	45,373837
3525,000000	45,383250
3524,000000	45,462287
3523,000000	45,674797
3522,000000	45,964034
3521,000000	46,203658
3520,000000	46,335568
3519,000000	46,401902
3518,000000	46,457487
3517,000000	46,506372
3516,000000	46,527284
3515,000000	46,507824
3514,000000	46,434362
3513,000000	46,288820
3512,000000	46,090154
3511,000000	45,923568
3510,000000	45,888973
3509,000000	46,001230
3508,000000	46,145654
3507,000000	46,158047
3506,000000	45,972392
3505,000000	45,696871
3504,000000	45,530539
3503,000000	45,594330
3502,000000	45,842203
3501,000000	46,121160
3500,000000	46,300131
3499,000000	46,343296
3498,000000	46,302312
3497,000000	46,263204
3496,000000	46,285565
3495,000000	46,366070
3494,000000	46,452906
3493,000000	46,496951
3492,000000	46,481575
3491,000000	46,414513
3490,000000	46,319998
3489,000000	46,245242
3488,000000	46,237303
3487,000000	46,287502
3486,000000	46,319684
3485,000000	46,263989
3484,000000	46,136858
3483,000000	46,031097
3482,000000	46,030048
3481,000000	46,143897
3480,000000	46,313176
3479,000000	46,454708
3478,000000	46,515125
3477,000000	46,503256
3476,000000	46,475455
3475,000000	46,479698
3474,000000	46,517274
3473,000000	46,559786
3472,000000	46,585973
3471,000000	46,589841
3470,000000	46,570977
3469,000000	46,539672
3468,000000	46,520842
3467,000000	46,529946
3466,000000	46,549268
3465,000000	46,547786
3464,000000	46,523526
3463,000000	46,509351
3462,000000	46,535186
3461,000000	46,598460
3460,000000	46,672132
3459,000000	46,730723
3458,000000	46,766566
3457,000000	46,789147
3456,000000	46,811940
3455,000000	46,838508
3454,000000	46,863525
3453,000000	46,879533
3452,000000	46,867607
3451,000000	46,786905
3450,000000	46,610176
3449,000000	46,388222
3448,000000	46,246437
3447,000000	46,275495
3446,000000	46,433762
3445,000000	46,594740
3444,000000	46,683687
3443,000000	46,732698
3442,000000	46,801835
3441,000000	46,894002
3440,000000	46,970423
3439,000000	47,013902
3438,000000	47,041831
3437,000000	47,070884
3436,000000	47,099597
3435,000000	47,122827
3434,000000	47,142174
3433,000000	47,160885
3432,000000	47,182104
3431,000000	47,212376
3430,000000	47,256096
3429,000000	47,307489
3428,000000	47,356043
3427,000000	47,395381
3426,000000	47,417013
3425,000000	47,402402
3424,000000	47,339550
3423,000000	47,252166
3422,000000	47,197580
3421,000000	47,224716
3420,000000	47,334184
3419,000000	47,480251
3418,000000	47,607445
3417,000000	47,685702
3416,000000	47,719720
3415,000000	47,733881
3414,000000	47,749049
3413,000000	47,770265
3412,000000	47,792678
3411,000000	47,813479
3410,000000	47,834221
3409,000000	47,855060
3408,000000	47,873055
3407,000000	47,885382
3406,000000	47,890418
3405,000000	47,888046
3404,000000	47,883906
3403,000000	47,889503
3402,000000	47,908970
3401,000000	47,928775
3400,000000	47,932694
3399,000000	47,927479
3398,000000	47,938550
3397,000000	47,973713
3396,000000	48,006665
3395,000000	48,011021
3394,000000	48,001339
3393,000000	48,022344
3392,000000	48,097627
3391,000000	48,202744
3390,000000	48,291234
3389,000000	48,335267
3388,000000	48,338172
3387,000000	48,321992
3386,000000	48,312744
3385,000000	48,329685
3384,000000	48,375122
3383,000000	48,432885
3382,000000	48,482219
3381,000000	48,514737
3380,000000	48,536579
3379,000000	48,556743
3378,000000	48,578266
3377,000000	48,600068
3376,000000	48,621864
3375,000000	48,643980
3374,000000	48,664098
3373,000000	48,676984
3372,000000	48,677961
3371,000000	48,665788
3370,000000	48,643106
3369,000000	48,616308
3368,000000	48,596046
3367,000000	48,594517
3366,000000	48,617033
3365,000000	48,655309
3364,000000	48,693747
3363,000000	48,724516
3362,000000	48,753227
3361,000000	48,787139
3360,000000	48,821936
3359,000000	48,846135
3358,000000	48,857360
3357,000000	48,867773
3356,000000	48,891003
3355,000000	48,927475
3354,000000	48,965339
3353,000000	48,993930
3352,000000	49,013751
3351,000000	49,033315
3350,000000	49,058407
3349,000000	49,086347
3348,000000	49,110628
3347,000000	49,128469
3346,000000	49,141507
3345,000000	49,151502
3344,000000	49,159546
3343,000000	49,168297
3342,000000	49,179171
3341,000000	49,186220
3340,000000	49,179560
3339,000000	49,159167
3338,000000	49,141244
3337,000000	49,146072
3336,000000	49,180619
3335,000000	49,234870
3334,000000	49,291766
3333,000000	49,337557
3332,000000	49,366007
3331,000000	49,378276
3330,000000	49,379832
3329,000000	49,376495
3328,000000	49,373820
3327,000000	49,378716
3326,000000	49,396789
3325,000000	49,426787
3324,000000	49,461504
3323,000000	49,495069
3322,000000	49,525337
3321,000000	49,549724
3320,000000	49,565569
3319,000000	49,575965
3318,000000	49,587254
3317,000000	49,598191
3316,000000	49,600406
3315,000000	49,593151
3314,000000	49,587582
3313,000000	49,590079
3312,000000	49,591694
3311,000000	49,584630
3310,000000	49,581200
3309,000000	49,602465
3308,000000	49,651455
3307,000000	49,709168
3306,000000	49,756299
3305,000000	49,789496
3304,000000	49,815679
3303,000000	49,839892
3302,000000	49,861305
3301,000000	49,875553
3300,000000	49,880026
3299,000000	49,880004
3298,000000	49,886596
3297,000000	49,903281
3296,000000	49,918116
3295,000000	49,917392
3294,000000	49,905087
3293,000000	49,900761
3292,000000	49,918384
3291,000000	49,954380
3290,000000	49,996883
3289,000000	50,037615
3288,000000	50,072180
3287,000000	50,096490
3286,000000	50,108906
3285,000000	50,113983
3284,000000	50,120250
3283,000000	50,133538
3282,000000	50,152154
3281,000000	50,167559
3280,000000	50,170490
3279,000000	50,158318
3278,000000	50,136587
3277,000000	50,114714
3276,000000	50,102707
3275,000000	50,110410
3274,000000	50,143335
3273,000000	50,196350
3272,000000	50,255756
3271,000000	50,309782
3270,000000	50,353898
3269,000000	50,385997
3268,000000	50,403928
3267,000000	50,411385
3266,000000	50,418991
3265,000000	50,433950
3264,000000	50,452902
3263,000000	50,468868
3262,000000	50,480471
3261,000000	50,490171
3260,000000	50,498160
3259,000000	50,502372
3258,000000	50,501250
3257,000000	50,495167
3256,000000	50,490291
3255,000000	50,501033
3254,000000	50,539085
3253,000000	50,596571
3252,000000	50,649684
3251,000000	50,682298
3250,000000	50,695340
3249,000000	50,691064
3248,000000	50,664882
3247,000000	50,624515
3246,000000	50,600997
3245,000000	50,622024
3244,000000	50,679579
3243,000000	50,739498
3242,000000	50,779347
3241,000000	50,802016
3240,000000	50,817640
3239,000000	50,829189
3238,000000	50,837932
3237,000000	50,848096
3236,000000	50,860475
3235,000000	50,870773
3234,000000	50,878096
3233,000000	50,887652
3232,000000	50,902268
3231,000000	50,918465
3230,000000	50,933984
3229,000000	50,953248
3228,000000	50,981472
3227,000000	51,017158
3226,000000	51,052521
3225,000000	51,078454
3224,000000	51,087722
3223,000000	51,078046
3222,000000	51,056755
3221,000000	51,041463
3220,000000	51,050128
3219,000000	51,084307
3218,000000	51,122643
3217,000000	51,139309
3216,000000	51,132845
3215,000000	51,129898
3214,000000	51,152571
3213,000000	51,189731
3212,000000	51,214187
3211,000000	51,222062
3210,000000	51,237918
3209,000000	51,278597
3208,000000	51,331460
3207,000000	51,374320
3206,000000	51,401894
3205,000000	51,422163
3204,000000	51,439134
3203,000000	51,450190
3202,000000	51,452110
3201,000000	51,441810
3200,000000	51,420005
3199,000000	51,401279
3198,000000	51,409383
3197,000000	51,452893
3196,000000	51,513187
3195,000000	51,565007
3194,000000	51,600531
3193,000000	51,625932
3192,000000	51,645839
3191,000000	51,661463
3190,000000	51,675401
3189,000000	51,686684
3188,000000	51,688369
3187,000000	51,680545
3186,000000	51,678701
3185,000000	51,698397
3184,000000	51,735551
3183,000000	51,770176
3182,000000	51,784583
3181,000000	51,774217
3180,000000	51,749599
3179,000000	51,735370
3178,000000	51,755882
3177,000000	51,810751
3176,000000	51,872212
3175,000000	51,914637
3174,000000	51,938375
3173,000000	51,956668
3172,000000	51,972862
3171,000000	51,983408
3170,000000	51,992775
3169,000000	52,009020
3168,000000	52,030241
3167,000000	52,049148
3166,000000	52,066071
3165,000000	52,085700
3164,000000	52,106066
3163,000000	52,122682
3162,000000	52,138514
3161,000000	52,158500
3160,000000	52,179161
3159,000000	52,194577
3158,000000	52,207525
3157,000000	52,223510
3156,000000	52,239005
3155,000000	52,247437
3154,000000	52,252516
3153,000000	52,264259
3152,000000	52,285004
3151,000000	52,309629
3150,000000	52,335594
3149,000000	52,362787
3148,000000	52,386955
3147,000000	52,403454
3146,000000	52,414733
3145,000000	52,426078
3144,000000	52,437652
3143,000000	52,448017
3142,000000	52,460487
3141,000000	52,478261
3140,000000	52,498662
3139,000000	52,518729
3138,000000	52,538464
3137,000000	52,551565
3136,000000	52,544252
3135,000000	52,516887
3134,000000	52,497310
3133,000000	52,515866
3132,000000	52,569331
3131,000000	52,623710
3130,000000	52,651186
3129,000000	52,653421
3128,000000	52,648799
3127,000000	52,649104
3126,000000	52,651740
3125,000000	52,648384
3124,000000	52,638477
3123,000000	52,633970
3122,000000	52,646922
3121,000000	52,671719
3120,000000	52,688456
3119,000000	52,687983
3118,000000	52,684185
3117,000000	52,696245
3116,000000	52,728268
3115,000000	52,773070
3114,000000	52,823613
3113,000000	52,871367
3112,000000	52,904068
3111,000000	52,918519
3110,000000	52,928296
3109,000000	52,947980
3108,000000	52,975706
3107,000000	52,999650
3106,000000	53,012747
3105,000000	53,011436
3104,000000	52,991971
3103,000000	52,962360
3102,000000	52,948911
3101,000000	52,972107
3100,000000	53,019303
3099,000000	53,056410
3098,000000	53,067201
3097,000000	53,068854
3096,000000	53,088898
3095,000000	53,137289
3094,000000	53,201061
3093,000000	53,258046
3092,000000	53,293731
3091,000000	53,310302
3090,000000	53,319823
3089,000000	53,329268
3088,000000	53,336928
3087,000000	53,342953
3086,000000	53,352407
3085,000000	53,363367
3084,000000	53,364009
3083,000000	53,349246
3082,000000	53,331031
3081,000000	53,324787
3080,000000	53,335048
3079,000000	53,361033
3078,000000	53,403949
3077,000000	53,458180
3076,000000	53,506186
3075,000000	53,535154
3074,000000	53,550780
3073,000000	53,563890
3072,000000	53,571310
3071,000000	53,561304
3070,000000	53,530937
3069,000000	53,487872
3068,000000	53,442817
3067,000000	53,410425
3066,000000	53,408611
3065,000000	53,443658
3064,000000	53,500283
3063,000000	53,555913
3062,000000	53,598555
3061,000000	53,623332
3060,000000	53,623701
3059,000000	53,601933
3058,000000	53,580650
3057,000000	53,587588
3056,000000	53,629116
3055,000000	53,687434
3054,000000	53,739304
3053,000000	53,769239
3052,000000	53,772160
3051,000000	53,757798
3050,000000	53,749093
3049,000000	53,764029
3048,000000	53,798817
3047,000000	53,835508
3046,000000	53,862476
3045,000000	53,879836
3044,000000	53,890845
3043,000000	53,898328
3042,000000	53,907032
3041,000000	53,919606
3040,000000	53,930907
3039,000000	53,932218
3038,000000	53,920113
3037,000000	53,896581
3036,000000	53,864034
3035,000000	53,825150
3034,000000	53,786327
3033,000000	53,758930
3032,000000	53,757118
3031,000000	53,789801
3030,000000	53,846256
3029,000000	53,893589
3028,000000	53,902588
3027,000000	53,877255
3026,000000	53,847054
3025,000000	53,829681
3024,000000	53,817191
3023,000000	53,799232
3022,000000	53,779143
3021,000000	53,759676
3020,000000	53,733418
3019,000000	53,700033
3018,000000	53,677486
3017,000000	53,681550
3016,000000	53,706863
3015,000000	53,740612
3014,000000	53,783889
3013,000000	53,846243
3012,000000	53,928611
3011,000000	54,023487
3010,000000	54,121905
3009,000000	54,210211
3008,000000	54,270304
3007,000000	54,297216
3006,000000	54,309047
3005,000000	54,328483
3004,000000	54,360676
3003,000000	54,396501
3002,000000	54,428385
3001,000000	54,452579
3000,000000	54,465561
2999,000000	54,468302
2998,000000	54,467873
2997,000000	54,467583
2996,000000	54,463729
2995,000000	54,458038
2994,000000	54,461688
2993,000000	54,478633
2992,000000	54,496093
2991,000000	54,500884
2990,000000	54,495707
2989,000000	54,490628
2988,000000	54,488664
2987,000000	54,488057
2986,000000	54,488388
2985,000000	54,485465
2984,000000	54,469965
2983,000000	54,439759
2982,000000	54,404870
2981,000000	54,373658
2980,000000	54,343615
2979,000000	54,310984
2978,000000	54,276656
2977,000000	54,237130
2976,000000	54,183305
2975,000000	54,115914
2974,000000	54,048162
2973,000000	53,984701
2972,000000	53,912529
2971,000000	53,821311
2970,000000	53,718756
2969,000000	53,616543
2968,000000	53,515804
2967,000000	53,416913
2966,000000	53,328832
2965,000000	53,257165
2964,000000	53,195378
2963,000000	53,138783
2962,000000	53,094355
2961,000000	53,066640
2960,000000	53,047470
2959,000000	53,029850
2958,000000	53,018761
2957,000000	53,017213
2956,000000	53,015949
2955,000000	53,008551
2954,000000	53,002931
2953,000000	53,005875
2952,000000	53,008684
2951,000000	53,000473
2950,000000	52,982823
2949,000000	52,959922
2948,000000	52,926656
2947,000000	52,878514
2946,000000	52,821539
2945,000000	52,760630
2944,000000	52,689924
2943,000000	52,604686
2942,000000	52,510983
2941,000000	52,413586
2940,000000	52,307908
2939,000000	52,194249
2938,000000	52,086060
2937,000000	51,992962
2936,000000	51,908733
2935,000000	51,826297
2934,000000	51,750227
2933,000000	51,683232
2932,000000	51,615901
2931,000000	51,542691
2930,000000	51,474588
2929,000000	51,423783
2928,000000	51,389575
2927,000000	51,371691
2926,000000	51,382289
2925,000000	51,431949
2924,000000	51,516242
2923,000000	51,628534
2922,000000	51,771848
2921,000000	51,945114
2920,000000	52,132623
2919,000000	52,319957
2918,000000	52,508075
2917,000000	52,698495
2916,000000	52,879753
2915,000000	53,042066
2914,000000	53,191505
2913,000000	53,335833
2912,000000	53,469287
2911,000000	53,585032
2910,000000	53,689230
2909,000000	53,789097
2908,000000	53,879838
2907,000000	53,957041
2906,000000	54,029148
2905,000000	54,104151
2904,000000	54,176481
2903,000000	54,239900
2902,000000	54,300447
2901,000000	54,363849
2900,000000	54,423086
2899,000000	54,471765
2898,000000	54,517004
2897,000000	54,566355
2896,000000	54,614721
2895,000000	54,656555
2894,000000	54,697694
2893,000000	54,742683
2892,000000	54,783820
2891,000000	54,815251
2890,000000	54,844287
2889,000000	54,876346
2888,000000	54,902870
2887,000000	54,916674
2886,000000	54,925158
2885,000000	54,935377
2884,000000	54,940386
2883,000000	54,933364
2882,000000	54,920873
2881,000000	54,908918
2880,000000	54,890255
2879,000000	54,858594
2878,000000	54,820992
2877,000000	54,783093
2876,000000	54,737121
2875,000000	54,677841
2874,000000	54,615117
2873,000000	54,556397
2872,000000	54,491602
2871,000000	54,409452
2870,000000	54,314295
2869,000000	54,212628
2868,000000	54,098719
2867,000000	53,968630
2866,000000	53,834938
2865,000000	53,712052
2864,000000	53,601279
2863,000000	53,503711
2862,000000	53,433102
2861,000000	53,400435
2860,000000	53,398949
2859,000000	53,418432
2858,000000	53,460757
2857,000000	53,527240
2856,000000	53,606371
2855,000000	53,689367
2854,000000	53,784154
2853,000000	53,898834
2852,000000	54,025417
2851,000000	54,153984
2850,000000	54,288913
2849,000000	54,435577
2848,000000	54,584937
2847,000000	54,726585
2846,000000	54,863573
2845,000000	55,000004
2844,000000	55,127503
2843,000000	55,238280
2842,000000	55,338682
2841,000000	55,435834
2840,000000	55,524556
2839,000000	55,600811
2838,000000	55,673408
2837,000000	55,748575
2836,000000	55,817496
2835,000000	55,873055
2834,000000	55,923980
2833,000000	55,978596
2832,000000	56,029612
2831,000000	56,069548
2830,000000	56,106001
2829,000000	56,147011
2828,000000	56,186158
2827,000000	56,216687
2826,000000	56,245858
2825,000000	56,280562
2824,000000	56,313598
2823,000000	56,338411
2822,000000	56,362396
2821,000000	56,391687
2820,000000	56,417851
2819,000000	56,434111
2818,000000	56,449154
2817,000000	56,470754
2816,000000	56,491203
2815,000000	56,503327
2814,000000	56,514888
2813,000000	56,532439
2812,000000	56,547505
2811,000000	56,553369
2810,000000	56,559609
2809,000000	56,574434
2808,000000	56,588925
2807,000000	56,594177
2806,000000	56,597693
2805,000000	56,607559
2804,000000	56,616478
2803,000000	56,617214
2802,000000	56,617813
2801,000000	56,625639
2800,000000	56,632609
2799,000000	56,631874
2798,000000	56,632827
2797,000000	56,643961
2796,000000	56,656760
2795,000000	56,662694
2794,000000	56,669588
2793,000000	56,685191
2792,000000	56,701466
2791,000000	56,711317
2790,000000	56,724446
2789,000000	56,749846
2788,000000	56,778593
2787,000000	56,800777
2786,000000	56,823018
2785,000000	56,852614
2784,000000	56,881008
2783,000000	56,899718
2782,000000	56,916827
2781,000000	56,940521
2780,000000	56,962396
2779,000000	56,974160
2778,000000	56,984683
2777,000000	57,003459
2776,000000	57,022957
2775,000000	57,034338
2774,000000	57,044649
2773,000000	57,061742
2772,000000	57,077879
2771,000000	57,085426
2770,000000	57,092809
2769,000000	57,107899
2768,000000	57,121871
2767,000000	57,126245
2766,000000	57,129828
2765,000000	57,141700
2764,000000	57,153802
2763,000000	57,157564
2762,000000	57,161456
2761,000000	57,174474
2760,000000	57,188226
2759,000000	57,193122
2758,000000	57,196394
2757,000000	57,206692
2756,000000	57,216736
2755,000000	57,218778
2754,000000	57,221116
2753,000000	57,232076
2752,000000	57,243229
2751,000000	57,245788
2750,000000	57,247811
2749,000000	57,257946
2748,000000	57,268147
2747,000000	57,269801
2746,000000	57,271028
2745,000000	57,280607
2744,000000	57,290683
2743,000000	57,292648
2742,000000	57,294227
2741,000000	57,303715
2740,000000	57,313546
2739,000000	57,316228
2738,000000	57,320262
2737,000000	57,333145
2736,000000	57,345340
2735,000000	57,348025
2734,000000	57,350129
2733,000000	57,360753
2732,000000	57,371546
2731,000000	57,373721
2730,000000	57,375517
2729,000000	57,385431
2728,000000	57,395221
2727,000000	57,396844
2726,000000	57,399257
2725,000000	57,410788
2724,000000	57,422300
2723,000000	57,425197
2722,000000	57,428743
2721,000000	57,441675
2720,000000	57,454379
2719,000000	57,457398
2718,000000	57,459952
2717,000000	57,471801
2716,000000	57,484094
2715,000000	57,486962
2714,000000	57,488488
2713,000000	57,497899
2712,000000	57,506966
2711,000000	57,507026
2710,000000	57,507121
2709,000000	57,516773
2708,000000	57,527417
2707,000000	57,529403
2706,000000	57,530544
2705,000000	57,539732
2704,000000	57,549334
2703,000000	57,551777
2702,000000	57,556346
2701,000000	57,571344
2700,000000	57,587075
2699,000000	57,594194
2698,000000	57,601379
2697,000000	57,616982
2696,000000	57,631571
2695,000000	57,636668
2694,000000	57,642314
2693,000000	57,657469
2692,000000	57,671869
2691,000000	57,675861
2690,000000	57,679641
2689,000000	57,693328
2688,000000	57,706985
2687,000000	57,709841
2686,000000	57,710739
2685,000000	57,719926
2684,000000	57,729093
2683,000000	57,729464
2682,000000	57,730768
2681,000000	57,742395
2680,000000	57,754079
2679,000000	57,755383
2678,000000	57,755834
2677,000000	57,765703
2676,000000	57,775443
2675,000000	57,774687
2674,000000	57,773208
2673,000000	57,782195
2672,000000	57,792716
2671,000000	57,793511
2670,000000	57,792563
2669,000000	57,800118
2668,000000	57,808309
2667,000000	57,807919
2666,000000	57,807764
2665,000000	57,817125
2664,000000	57,826637
2663,000000	57,826509
2662,000000	57,825968
2661,000000	57,834679
2660,000000	57,843215
2659,000000	57,842185
2658,000000	57,841934
2657,000000	57,852816
2656,000000	57,864375
2655,000000	57,865118
2654,000000	57,864281
2653,000000	57,873464
2652,000000	57,884724
2651,000000	57,887918
2650,000000	57,891329
2649,000000	57,903947
2648,000000	57,915750
2647,000000	57,916530
2646,000000	57,916342
2645,000000	57,926381
2644,000000	57,937901
2643,000000	57,940355
2642,000000	57,942335
2641,000000	57,953213
2640,000000	57,963196
2639,000000	57,962512
2638,000000	57,961549
2637,000000	57,971082
2636,000000	57,981226
2635,000000	57,981149
2634,000000	57,980553
2633,000000	57,990188
2632,000000	58,000264
2631,000000	58,000069
2630,000000	57,999447
2629,000000	58,009329
2628,000000	58,019525
2627,000000	58,018543
2626,000000	58,016014
2625,000000	58,023426
2624,000000	58,031785
2623,000000	58,030378
2622,000000	58,028954
2621,000000	58,038289
2620,000000	58,048157
2619,000000	58,046959
2618,000000	58,044546
2617,000000	58,052793
2616,000000	58,062415
2615,000000	58,061837
2614,000000	58,060186
2613,000000	58,068498
2612,000000	58,077070
2611,000000	58,074470
2610,000000	58,070596
2609,000000	58,077483
2608,000000	58,085910
2607,000000	58,084124
2606,000000	58,081099
2605,000000	58,088006
2604,000000	58,094826
2603,000000	58,089448
2602,000000	58,081250
2601,000000	58,082850
2600,000000	58,086019
2599,000000	58,079491
2598,000000	58,072065
2597,000000	58,074887
2596,000000	58,078713
2595,000000	58,072254
2594,000000	58,065185
2593,000000	58,069505
2592,000000	58,076260
2591,000000	58,073631
2590,000000	58,070436
2589,000000	58,078197
2588,000000	58,088283
2587,000000	58,089582
2586,000000	58,090914
2585,000000	58,102648
2584,000000	58,114799
2583,000000	58,116198
2582,000000	58,116878
2581,000000	58,128332
2580,000000	58,140485
2579,000000	58,141592
2578,000000	58,141748
2577,000000	58,152977
2576,000000	58,165133
2575,000000	58,165625
2574,000000	58,164160
2573,000000	58,173365
2572,000000	58,183864
2571,000000	58,182774
2570,000000	58,179046
2569,000000	58,185365
2568,000000	58,193500
2567,000000	58,191503
2566,000000	58,187879
2565,000000	58,194090
2564,000000	58,201239
2563,000000	58,197981
2562,000000	58,193671
2561,000000	58,200014
2560,000000	58,207621
2559,000000	58,204770
2558,000000	58,200579
2557,000000	58,206563
2556,000000	58,213229
2555,000000	58,209300
2554,000000	58,204684
2553,000000	58,210981
2552,000000	58,217868
2551,000000	58,213300
2550,000000	58,207842
2549,000000	58,214459
2548,000000	58,223499
2547,000000	58,221949
2546,000000	58,218600
2545,000000	58,225123
2544,000000	58,231753
2543,000000	58,226705
2542,000000	58,220774
2541,000000	58,227236
2540,000000	58,236212
2539,000000	58,234029
2538,000000	58,229346
2537,000000	58,234739
2536,000000	58,241729
2535,000000	58,238860
2534,000000	58,235912
2533,000000	58,244421
2532,000000	58,253194
2531,000000	58,249078
2530,000000	58,242613
2529,000000	58,248132
2528,000000	58,256473
2527,000000	58,253936
2526,000000	58,249044
2525,000000	58,254608
2524,000000	58,261764
2523,000000	58,257934
2522,000000	58,252197
2521,000000	58,257121
2520,000000	58,263486
2519,000000	58,258926
2518,000000	58,253186
2517,000000	58,258771
2516,000000	58,265467
2515,000000	58,259207
2514,000000	58,248735
2513,000000	58,247684
2512,000000	58,249042
2511,000000	58,242574
2510,000000	58,238167
2509,000000	58,245894
2508,000000	58,252569
2507,000000	58,244444
2506,000000	58,233697
2505,000000	58,236295
2504,000000	58,242526
2503,000000	58,236991
2502,000000	58,228001
2501,000000	58,229656
2500,000000	58,233621
2499,000000	58,226873
2498,000000	58,218671
2497,000000	58,222351
2496,000000	58,228269
2495,000000	58,222418
2494,000000	58,214086
2493,000000	58,217337
2492,000000	58,223153
2491,000000	58,217392
2490,000000	58,208879
2489,000000	58,211602
2488,000000	58,217052
2487,000000	58,211629
2486,000000	58,204028
2485,000000	58,207574
2484,000000	58,213120
2483,000000	58,206877
2482,000000	58,197788
2481,000000	58,199842
2480,000000	58,204436
2479,000000	58,198043
2478,000000	58,189497
2477,000000	58,192529
2476,000000	58,198110
2475,000000	58,192238
2474,000000	58,183574
2473,000000	58,186062
2472,000000	58,191103
2471,000000	58,184801
2470,000000	58,175597
2469,000000	58,177187
2468,000000	58,181318
2467,000000	58,174952
2466,000000	58,167179
2465,000000	58,171201
2464,000000	58,177177
2463,000000	58,170660
2462,000000	58,160882
2461,000000	58,162652
2460,000000	58,167629
2459,000000	58,161556
2458,000000	58,152773
2457,000000	58,155310
2456,000000	58,160698
2455,000000	58,155039
2454,000000	58,147045
2453,000000	58,150853
2452,000000	58,157660
2451,000000	58,153087
2450,000000	58,145763
2449,000000	58,150170
2448,000000	58,157612
2447,000000	58,153239
2446,000000	58,145446
2445,000000	58,149340
2444,000000	58,157054
2443,000000	58,153457
2442,000000	58,145721
2441,000000	58,148181
2440,000000	58,153672
2439,000000	58,148570
2438,000000	58,141063
2437,000000	58,145142
2436,000000	58,152185
2435,000000	58,147065
2434,000000	58,137617
2433,000000	58,138938
2432,000000	58,143831
2431,000000	58,137712
2430,000000	58,127742
2429,000000	58,128199
2428,000000	58,131774
2427,000000	58,124671
2426,000000	58,115202
2425,000000	58,118146
2424,000000	58,125182
2423,000000	58,120510
2422,000000	58,111391
2421,000000	58,113443
2420,000000	58,119591
2419,000000	58,114037
2418,000000	58,103332
2417,000000	58,103191
2416,000000	58,107721
2415,000000	58,101944
2414,000000	58,092335
2413,000000	58,094184
2412,000000	58,100828
2411,000000	58,096045
2410,000000	58,085812
2409,000000	58,086595
2408,000000	58,093102
2407,000000	58,088633
2406,000000	58,077564
2405,000000	58,076655
2404,000000	58,082890
2403,000000	58,080622
2402,000000	58,072586
2401,000000	58,073477
2400,000000	58,079830
2399,000000	58,076556
2398,000000	58,066720
2397,000000	58,065502
2396,000000	58,069961
2395,000000	58,063898
2394,000000	58,047132
2393,000000	58,030341
2392,000000	58,004668
2391,000000	57,942003
2390,000000	57,823753
2389,000000	57,636417
2388,000000	57,341440
2387,000000	56,880094
2386,000000	56,200359
2385,000000	55,268465
2384,000000	54,046904
2383,000000	52,502085
2382,000000	50,645386
2381,000000	48,530587
2380,000000	46,227436
2379,000000	43,802695
2378,000000	41,334380
2377,000000	38,908357
2376,000000	36,579397
2375,000000	34,363541
2374,000000	32,269652
2373,000000	30,322083
2372,000000	28,535444
2371,000000	26,901161
2370,000000	25,410585
2369,000000	24,077074
2368,000000	22,916107
2367,000000	21,913088
2366,000000	21,051746
2365,000000	20,347355
2364,000000	19,825123
2363,000000	19,475026
2362,000000	19,258788
2361,000000	19,179848
2360,000000	19,291953
2359,000000	19,630952
2358,000000	20,191887
2357,000000	20,979423
2356,000000	22,051545
2355,000000	23,477055
2354,000000	25,322677
2353,000000	27,703347
2352,000000	30,653362
2351,000000	33,760063
2350,000000	35,998429
2349,000000	36,303488
2348,000000	34,502705
2347,000000	31,593839
2346,000000	28,942919
2345,000000	27,257851
2344,000000	26,400807
2343,000000	25,964702
2342,000000	25,757511
2341,000000	25,740942
2340,000000	25,843997
2339,000000	25,984604
2338,000000	26,170530
2337,000000	26,426594
2336,000000	26,694264
2335,000000	26,875796
2334,000000	26,942572
2333,000000	26,955137
2332,000000	27,018897
2331,000000	27,254596
2330,000000	27,745495
2329,000000	28,453036
2328,000000	29,216637
2327,000000	29,876549
2326,000000	30,384003
2325,000000	30,799341
2324,000000	31,231486
2323,000000	31,800524
2322,000000	32,589972
2321,000000	33,598481
2320,000000	34,760233
2319,000000	36,008295
2318,000000	37,274338
2317,000000	38,442755
2316,000000	39,398561
2315,000000	40,151987
2314,000000	40,846045
2313,000000	41,612817
2312,000000	42,473711
2311,000000	43,395326
2310,000000	44,360178
2309,000000	45,347808
2308,000000	46,313602
2307,000000	47,235027
2306,000000	48,126231
2305,000000	48,975312
2304,000000	49,726368
2303,000000	50,358518
2302,000000	50,923144
2301,000000	51,468996
2300,000000	51,984160
2299,000000	52,449778
2298,000000	52,888782
2297,000000	53,320520
2296,000000	53,724229
2295,000000	54,086939
2294,000000	54,438852
2293,000000	54,799762
2292,000000	55,142287
2291,000000	55,446673
2290,000000	55,740169
2289,000000	56,044827
2288,000000	56,337938
2287,000000	56,599445
2286,000000	56,844682
2285,000000	57,068732
2284,000000	57,215685
2283,000000	57,251005
2282,000000	57,214250
2281,000000	57,160867
2280,000000	57,097815
2279,000000	57,019796
2278,000000	56,954335
2277,000000	56,922450
2276,000000	56,900786
2275,000000	56,867390
2274,000000	56,843520
2273,000000	56,848031
2272,000000	56,857051
2271,000000	56,849474
2270,000000	56,848037
2269,000000	56,872943
2268,000000	56,901186
2267,000000	56,912736
2266,000000	56,931612
2265,000000	56,978660
2264,000000	57,029838
2263,000000	57,062539
2262,000000	57,098206
2261,000000	57,156541
2260,000000	57,213663
2259,000000	57,248310
2258,000000	57,283617
2257,000000	57,340921
2256,000000	57,396856
2255,000000	57,429599
2254,000000	57,461528
2253,000000	57,513815
2252,000000	57,563440
2251,000000	57,588666
2250,000000	57,611799
2249,000000	57,653923
2248,000000	57,692639
2247,000000	57,707274
2246,000000	57,721214
2245,000000	57,755704
2244,000000	57,787661
2243,000000	57,795750
2242,000000	57,803224
2241,000000	57,831052
2240,000000	57,855470
2239,000000	57,855386
2238,000000	57,856059
2237,000000	57,880796
2236,000000	57,905660
2235,000000	57,907059
2234,000000	57,907843
2233,000000	57,931032
2232,000000	57,953364
2231,000000	57,951458
2230,000000	57,947858
2229,000000	57,965824
2228,000000	57,983144
2227,000000	57,977776
2226,000000	57,972916
2225,000000	57,990662
2224,000000	58,006162
2223,000000	57,995265
2222,000000	57,982173
2221,000000	57,991905
2220,000000	58,001924
2219,000000	57,987817
2218,000000	57,972486
2217,000000	57,980554
2216,000000	57,990035
2215,000000	57,976716
2214,000000	57,962775
2213,000000	57,972272
2212,000000	57,983034
2211,000000	57,970885
2210,000000	57,957487
2209,000000	57,966082
2208,000000	57,974047
2207,000000	57,958800
2206,000000	57,944656
2205,000000	57,956363
2204,000000	57,969884
2203,000000	57,958983
2202,000000	57,945204
2201,000000	57,953371
2200,000000	57,961837
2199,000000	57,947509
2198,000000	57,934283
2197,000000	57,946594
2196,000000	57,959985
2195,000000	57,947665
2194,000000	57,932325
2193,000000	57,940613
2192,000000	57,951590
2191,000000	57,939936
2190,000000	57,926749
2189,000000	57,935792
2188,000000	57,945083
2187,000000	57,931221
2186,000000	57,917876
2185,000000	57,929126
2184,000000	57,940221
2183,000000	57,925700
2182,000000	57,909872
2181,000000	57,919340
2180,000000	57,930148
2179,000000	57,915493
2178,000000	57,898344
2177,000000	57,905552
2176,000000	57,914449
2175,000000	57,898296
2174,000000	57,878962
2173,000000	57,881898
2172,000000	57,884757
2171,000000	57,863576
2170,000000	57,844092
2169,000000	57,853304
2168,000000	57,866296
2167,000000	57,853824
2166,000000	57,837298
2165,000000	57,842650
2164,000000	57,847309
2163,000000	57,826935
2162,000000	57,808131
2161,000000	57,818717
2160,000000	57,832335
2159,000000	57,818205
2158,000000	57,799299
2157,000000	57,805433
2156,000000	57,814452
2155,000000	57,797863
2154,000000	57,777905
2153,000000	57,783261
2152,000000	57,791880
2151,000000	57,775790
2150,000000	57,756585
2149,000000	57,761102
2148,000000	57,766563
2147,000000	57,746939
2146,000000	57,727714
2145,000000	57,737442
2144,000000	57,750616
2143,000000	57,735672
2142,000000	57,714710
2141,000000	57,716894
2140,000000	57,719377
2139,000000	57,692949
2138,000000	57,662616
2137,000000	57,662796
2136,000000	57,675611
2135,000000	57,670891
2134,000000	57,663934
2133,000000	57,676896
2132,000000	57,686634
2131,000000	57,668494
2130,000000	57,648047
2129,000000	57,653659
2128,000000	57,661364
2127,000000	57,642881
2126,000000	57,621812
2125,000000	57,627102
2124,000000	57,635811
2123,000000	57,619744
2122,000000	57,601653
2121,000000	57,609446
2120,000000	57,619329
2119,000000	57,601056
2118,000000	57,574717
2117,000000	57,567835
2116,000000	57,563875
2115,000000	57,544956
2114,000000	57,537815
2113,000000	57,561969
2112,000000	57,583081
2111,000000	57,571154
2110,000000	57,554920
2109,000000	57,564246
2108,000000	57,573233
2107,000000	57,554942
2106,000000	57,537742
2105,000000	57,549823
2104,000000	57,562181
2103,000000	57,545617
2102,000000	57,528216
2101,000000	57,539419
2100,000000	57,551325
2099,000000	57,535208
2098,000000	57,518905
2097,000000	57,530947
2096,000000	57,543105
2095,000000	57,526469
2094,000000	57,505194
2093,000000	57,498723
2092,000000	57,475497
2091,000000	57,422925
2090,000000	57,396176
2089,000000	57,431498
2088,000000	57,479172
2087,000000	57,486087
2086,000000	57,479436
2085,000000	57,498601
2084,000000	57,515651
2083,000000	57,496350
2082,000000	57,473267
2081,000000	57,481719
2080,000000	57,488418
2079,000000	57,459735
2078,000000	57,434380
2077,000000	57,451996
2076,000000	57,475060
2075,000000	57,461321
2074,000000	57,444961
2073,000000	57,466860
2072,000000	57,491887
2071,000000	57,478736
2070,000000	57,458978
2069,000000	57,459619
2068,000000	57,423472
2067,000000	57,308531
2066,000000	57,198641
2065,000000	57,202963
2064,000000	57,299314
2063,000000	57,380738
2062,000000	57,411986
2061,000000	57,433681
2060,000000	57,456635
2059,000000	57,458044
2058,000000	57,452141
2057,000000	57,468868
2056,000000	57,487958
2055,000000	57,476611
2054,000000	57,458859
2053,000000	57,471114
2052,000000	57,489103
2051,000000	57,476099
2050,000000	57,456875
2049,000000	57,467500
2048,000000	57,480144
2047,000000	57,457321
2046,000000	57,425148
2045,000000	57,412942
2044,000000	57,380880
2043,000000	57,299209
2042,000000	57,237671
2041,000000	57,274922
2040,000000	57,371498
2039,000000	57,431606
2038,000000	57,444259
2037,000000	57,460490
2036,000000	57,480692
2035,000000	57,470195
2034,000000	57,448650
2033,000000	57,458807
2032,000000	57,479269
2031,000000	57,463565
2030,000000	57,431542
2029,000000	57,430806
2028,000000	57,444700
2027,000000	57,430280
2026,000000	57,406493
2025,000000	57,414091
2024,000000	57,430619
2023,000000	57,415224
2022,000000	57,384808
2021,000000	57,351734
2020,000000	57,251206
2019,000000	57,050487
2018,000000	56,875061
2017,000000	56,889576
2016,000000	57,080117
2015,000000	57,279881
2014,000000	57,388065
2013,000000	57,434780
2012,000000	57,454513
2011,000000	57,434043
2010,000000	57,391053
2009,000000	57,380473
2008,000000	57,403969
2007,000000	57,412182
2006,000000	57,402171
2005,000000	57,416064
2004,000000	57,445309
2003,000000	57,437705
2002,000000	57,398050
2001,000000	57,381152
2000,000000	57,387716
1999,000000	57,374524
1998,000000	57,359615
1997,000000	57,386259
1996,000000	57,370710
1995,000000	57,141637
1994,000000	56,699232
1993,000000	56,311897
1992,000000	56,250757
1991,000000	56,496994
1990,000000	56,806380
1989,000000	57,002996
1988,000000	57,107467
1987,000000	57,205641
1986,000000	57,304974
1985,000000	57,358737
1984,000000	57,358556
1983,000000	57,343739
1982,000000	57,341322
1981,000000	57,341884
1980,000000	57,332873
1979,000000	57,321230
1978,000000	57,315998
1977,000000	57,312105
1976,000000	57,303554
1975,000000	57,295735
1974,000000	57,294949
1973,000000	57,298644
1972,000000	57,289729
1971,000000	57,218878
1970,000000	57,017485
1969,000000	56,695015
1968,000000	56,420050
1967,000000	56,405778
1966,000000	56,671357
1965,000000	56,995103
1964,000000	57,160120
1963,000000	57,166517
1962,000000	57,140035
1961,000000	57,133271
1960,000000	57,119479
1959,000000	57,100452
1958,000000	57,097460
1957,000000	57,085343
1956,000000	57,043965
1955,000000	57,027442
1954,000000	57,080779
1953,000000	57,147311
1952,000000	57,157240
1951,000000	57,136442
1950,000000	57,125282
1949,000000	57,078843
1948,000000	56,958185
1947,000000	56,801276
1946,000000	56,576282
1945,000000	56,136142
1944,000000	55,528536
1943,000000	55,180357
1942,000000	55,471820
1941,000000	56,210838
1940,000000	56,828095
1939,000000	57,048105
1938,000000	57,063620
1937,000000	57,087774
1936,000000	57,090105
1935,000000	57,021804
1934,000000	56,975266
1933,000000	57,006150
1932,000000	57,035341
1931,000000	57,017973
1930,000000	57,016533
1929,000000	57,051584
1928,000000	57,049470
1927,000000	56,945803
1926,000000	56,685616
1925,000000	56,218661
1924,000000	55,700365
1923,000000	55,515738
1922,000000	55,753013
1921,000000	55,842221
1920,000000	55,228980
1919,000000	54,315213
1918,000000	54,129034
1917,000000	54,989182
1916,000000	56,115248
1915,000000	56,705270
1914,000000	56,779222
1913,000000	56,701686
1912,000000	56,503686
1911,000000	56,125968
1910,000000	55,843971
1909,000000	55,942384
1908,000000	56,255189
1907,000000	56,453247
1906,000000	56,526434
1905,000000	56,630210
1904,000000	56,713626
1903,000000	56,666283
1902,000000	56,603608
1901,000000	56,667731
1900,000000	56,738122
1899,000000	56,629763
1898,000000	56,384809
1897,000000	56,140755
1896,000000	55,945377
1895,000000	55,880410
1894,000000	56,040736
1893,000000	56,179410
1892,000000	55,811701
1891,000000	54,974965
1890,000000	54,451733
1889,000000	54,816242
1888,000000	55,660091
1887,000000	56,203976
1886,000000	56,303301
1885,000000	56,341242
1884,000000	56,457185
1883,000000	56,487061
1882,000000	56,440255
1881,000000	56,480304
1880,000000	56,550295
1879,000000	56,495194
1878,000000	56,412809
1877,000000	56,473728
1876,000000	56,568744
1875,000000	56,521488
1874,000000	56,392470
1873,000000	56,125142
1872,000000	55,258100
1871,000000	53,605108
1870,000000	51,985302
1869,000000	51,552209
1868,000000	52,486544
1867,000000	53,927680
1866,000000	55,095216
1865,000000	55,855583
1864,000000	56,269064
1863,000000	56,314386
1862,000000	56,157825
1861,000000	56,114152
1860,000000	56,204663
1859,000000	56,204894
1858,000000	56,132517
1857,000000	56,214936
1856,000000	56,392095
1855,000000	56,384162
1854,000000	56,237690
1853,000000	56,249979
1852,000000	56,347723
1851,000000	56,157693
1850,000000	55,701258
1849,000000	55,327652
1848,000000	54,841954
1847,000000	53,503141
1846,000000	51,305575
1845,000000	49,598974
1844,000000	49,815302
1843,000000	51,863472
1842,000000	54,254546
1841,000000	55,651468
1840,000000	55,891672
1839,000000	55,638497
1838,000000	55,471541
1837,000000	55,494637
1836,000000	55,595171
1835,000000	55,706275
1834,000000	55,638601
1833,000000	54,916671
1832,000000	53,313627
1831,000000	51,595588
1830,000000	51,072644
1829,000000	52,030231
1828,000000	53,164706
1827,000000	53,204856
1826,000000	52,549244
1825,000000	52,572216
1824,000000	53,659625
1823,000000	54,880637
1822,000000	55,466843
1821,000000	55,591286
1820,000000	55,614063
1819,000000	55,487433
1818,000000	55,230756
1817,000000	55,194700
1816,000000	55,465763
1815,000000	55,576529
1814,000000	55,160651
1813,000000	54,452936
1812,000000	53,887142
1811,000000	53,646328
1810,000000	53,772051
1809,000000	54,255975
1808,000000	54,832050
1807,000000	55,105585
1806,000000	55,004036
1805,000000	54,703894
1804,000000	54,130023
1803,000000	53,111970
1802,000000	52,030454
1801,000000	51,632189
1800,000000	52,075995
1799,000000	52,791773
1798,000000	53,344840
1797,000000	53,653090
1796,000000	53,318448
1795,000000	51,733781
1794,000000	49,305099
1793,000000	47,650504
1792,000000	48,025301
1791,000000	50,045120
1790,000000	52,355636
1789,000000	53,928580
1788,000000	54,363305
1787,000000	53,754609
1786,000000	52,824743
1785,000000	52,518765
1784,000000	52,918646
1783,000000	53,142006
1782,000000	52,717010
1781,000000	52,331996
1780,000000	52,667073
1779,000000	53,314262
1778,000000	53,507762
1777,000000	53,104043
1776,000000	52,071195
1775,000000	49,945747
1774,000000	46,929216
1773,000000	44,745233
1772,000000	45,023450
1771,000000	47,115775
1770,000000	48,890640
1769,000000	49,510991
1768,000000	50,116076
1767,000000	51,616911
1766,000000	53,128939
1765,000000	53,185713
1764,000000	51,646202
1763,000000	49,845073
1762,000000	49,220771
1761,000000	50,059908
1760,000000	51,317670
1759,000000	51,631176
1758,000000	50,851789
1757,000000	50,325418
1756,000000	51,065330
1755,000000	52,078825
1754,000000	51,435457
1753,000000	48,893114
1752,000000	46,340306
1751,000000	45,447164
1750,000000	46,041976
1749,000000	47,111975
1748,000000	48,261308
1747,000000	49,439399
1746,000000	50,204561
1745,000000	50,225100
1744,000000	49,882915
1743,000000	49,534150
1742,000000	48,796815
1741,000000	47,556795
1740,000000	46,968481
1739,000000	48,026991
1738,000000	49,313153
1737,000000	47,994181
1736,000000	43,577769
1735,000000	39,317583
1734,000000	38,820579
1733,000000	42,089626
1732,000000	46,092208
1731,000000	48,516535
1730,000000	49,633111
1729,000000	50,633359
1728,000000	51,670908
1727,000000	52,160187
1726,000000	51,985952
1725,000000	51,617454
1724,000000	51,452061
1723,000000	51,444578
1722,000000	51,054496
1721,000000	49,317769
1720,000000	45,737376
1719,000000	41,507971
1718,000000	39,050139
1717,000000	39,655696
1716,000000	42,218831
1715,000000	44,885117
1714,000000	47,124968
1713,000000	49,237187
1712,000000	50,810943
1711,000000	51,120454
1710,000000	50,506636
1709,000000	49,802652
1708,000000	48,810762
1707,000000	47,050959
1706,000000	45,601855
1705,000000	45,901912
1704,000000	46,638689
1703,000000	44,548005
1702,000000	39,313164
1701,000000	35,178466
1700,000000	35,702923
1699,000000	38,983706
1698,000000	40,543167
1697,000000	39,536767
1696,000000	39,346717
1695,000000	42,343930
1694,000000	46,872847
1693,000000	49,880645
1692,000000	50,400246
1691,000000	49,659386
1690,000000	49,030971
1689,000000	48,736086
1688,000000	47,695387
1687,000000	44,513481
1686,000000	39,540349
1685,000000	35,758711
1684,000000	36,213437
1683,000000	40,489593
1682,000000	45,114826
1681,000000	47,683904
1680,000000	48,728513
1679,000000	49,192765
1678,000000	48,352396
1677,000000	45,703566
1676,000000	43,163097
1675,000000	43,151568
1674,000000	45,236553
1673,000000	46,538991
1672,000000	45,431776
1671,000000	43,254179
1670,000000	42,307825
1669,000000	43,494705
1668,000000	46,091056
1667,000000	48,644786
1666,000000	49,695689
1665,000000	48,640079
1664,000000	46,568190
1663,000000	45,563652
1662,000000	46,585607
1661,000000	48,555047
1660,000000	49,882566
1659,000000	50,180357
1658,000000	49,710920
1657,000000	47,721428
1656,000000	42,889746
1655,000000	35,874819
1654,000000	30,368716
1653,000000	30,233791
1652,000000	35,468257
1651,000000	41,838879
1650,000000	44,771016
1649,000000	43,350958
1648,000000	40,322181
1647,000000	38,942862
1646,000000	40,404074
1645,000000	43,720914
1644,000000	47,031454
1643,000000	48,961073
1642,000000	49,344472
1641,000000	48,955303
1640,000000	48,231597
1639,000000	46,484005
1638,000000	43,058256
1637,000000	39,131814
1636,000000	37,340850
1635,000000	39,162344
1634,000000	43,287924
1633,000000	47,051423
1632,000000	48,837851
1631,000000	48,759496
1630,000000	47,729569
1629,000000	46,669082
1628,000000	46,187509
1627,000000	46,181847
1626,000000	45,821710
1625,000000	44,608898
1624,000000	43,374407
1623,000000	43,550259
1622,000000	45,332262
1621,000000	47,050698
1620,000000	46,696823
1619,000000	43,945413
1618,000000	40,582846
1617,000000	39,071974
1616,000000	40,498024
1615,000000	43,700313
1614,000000	46,421129
1613,000000	47,360337
1612,000000	46,987634
1611,000000	46,447703
1610,000000	46,193486
1609,000000	46,043135
1608,000000	45,979385
1607,000000	46,198494
1606,000000	46,556223
1605,000000	46,651556
1604,000000	46,467896
1603,000000	46,403480
1602,000000	46,625785
1601,000000	46,871956
1600,000000	46,954230
1599,000000	46,988554
1598,000000	47,025135
1597,000000	46,901627
1596,000000	46,627492
1595,000000	46,509519
1594,000000	46,696442
1593,000000	46,933709
1592,000000	46,975124
1591,000000	46,937584
1590,000000	47,024880
1589,000000	47,170520
1588,000000	47,201818
1587,000000	47,156975
1586,000000	47,177549
1585,000000	47,222628
1584,000000	47,148732
1583,000000	47,010546
1582,000000	47,021983
1581,000000	47,070643
1580,000000	46,438329
1579,000000	44,307934
1578,000000	40,905313
1577,000000	38,021574
1576,000000	37,822931
1575,000000	40,655094
1574,000000	44,247484
1573,000000	45,671687
1572,000000	44,150406
1571,000000	41,591826
1570,000000	40,415353
1569,000000	41,314715
1568,000000	43,128376
1567,000000	44,388969
1566,000000	44,644509
1565,000000	44,459216
1564,000000	44,218894
1563,000000	42,994859
1562,000000	39,187381
1561,000000	32,929030
1560,000000	27,363570
1559,000000	26,208349
1558,000000	29,799439
1557,000000	34,724952
1556,000000	37,793100
1555,000000	39,120276
1554,000000	40,532879
1553,000000	42,350028
1552,000000	43,364534
1551,000000	43,322114
1550,000000	43,404101
1549,000000	44,158818
1548,000000	44,512062
1547,000000	43,427795
1546,000000	41,350384
1545,000000	39,307083
1544,000000	37,417001
1543,000000	35,067529
1542,000000	32,205316
1541,000000	29,933283
1540,000000	29,916699
1539,000000	33,062260
1538,000000	38,232040
1537,000000	42,416340
1536,000000	43,173993
1535,000000	41,204543
1534,000000	39,621466
1533,000000	40,463229
1532,000000	42,771862
1531,000000	44,417643
1530,000000	44,545409
1529,000000	43,613292
1528,000000	42,187696
1527,000000	40,807361
1526,000000	40,098626
1525,000000	39,849182
1524,000000	38,741209
1523,000000	36,251925
1522,000000	34,156266
1521,000000	34,579614
1520,000000	37,001155
1519,000000	38,842302
1518,000000	39,004736
1517,000000	39,019473
1516,000000	40,317006
1515,000000	42,095765
1514,000000	42,801774
1513,000000	42,417804
1512,000000	41,919631
1511,000000	41,244996
1510,000000	39,173444
1509,000000	35,290959
1508,000000	31,201069
1507,000000	29,461393
1506,000000	31,470830
1505,000000	36,266113
1504,000000	41,184430
1503,000000	43,884193
1502,000000	43,948535
1501,000000	42,522776
1500,000000	40,673026
1499,000000	38,644651
1498,000000	36,709113
1497,000000	35,791680
1496,000000	36,648622
1495,000000	38,712313
1494,000000	40,362402
1493,000000	40,361515
1492,000000	38,886556
1491,000000	37,245490
1490,000000	36,724457
1489,000000	37,598229
1488,000000	39,200153
1487,000000	40,850997
1486,000000	42,425488
1485,000000	43,848724
1484,000000	44,625409
1483,000000	44,489863
1482,000000	44,100195
1481,000000	44,253699
1480,000000	44,611214
1479,000000	44,154138
1478,000000	42,767262
1477,000000	41,298106
1476,000000	40,025281
1475,000000	38,334393
1474,000000	36,333230
1473,000000	35,504118
1472,000000	36,996819
1471,000000	40,053699
1470,000000	42,860511
1469,000000	44,236110
1468,000000	43,967309
1467,000000	42,406095
1466,000000	40,562787
1465,000000	39,888676
1464,000000	40,953622
1463,000000	42,669215
1462,000000	43,346403
1461,000000	42,146511
1460,000000	39,148370
1459,000000	35,056203
1458,000000	31,531939
1457,000000	30,782384
1456,000000	33,471715
1455,000000	37,599596
1454,000000	40,500238
1453,000000	41,516365
1452,000000	41,732082
1451,000000	41,749441
1450,000000	41,257745
1449,000000	40,448063
1448,000000	40,311647
1447,000000	41,233821
1446,000000	42,448161
1445,000000	43,166039
1444,000000	43,404404
1443,000000	43,516773
1442,000000	43,598126
1441,000000	43,449561
1440,000000	42,572139
1439,000000	40,457913
1438,000000	37,636304
1437,000000	36,026086
1436,000000	37,118491
1435,000000	39,996446
1434,000000	42,203333
1433,000000	42,555899
1432,000000	41,936461
1431,000000	41,494636
1430,000000	41,444447
1429,000000	41,719726
1428,000000	42,379076
1427,000000	42,942833
1426,000000	42,642076
1425,000000	41,745175
1424,000000	41,398854
1423,000000	41,611096
1422,000000	40,846617
1421,000000	38,419867
1420,000000	36,028608
1419,000000	35,794935
1418,000000	37,670443
1417,000000	39,948701
1416,000000	41,487176
1415,000000	42,332159
1414,000000	42,687738
1413,000000	42,558977
1412,000000	42,241513
1411,000000	42,170868
1410,000000	42,285832
1409,000000	42,164384
1408,000000	41,670718
1407,000000	40,978063
1406,000000	40,270045
1405,000000	39,850773
1404,000000	40,103186
1403,000000	40,780853
1402,000000	40,881334
1401,000000	39,895535
1400,000000	38,707239
1399,000000	38,413941
1398,000000	38,763528
1397,000000	38,684003
1396,000000	38,049180
1395,000000	37,881503
1394,000000	38,809009
1393,000000	40,292134
1392,000000	41,415030
1391,000000	41,698630
1390,000000	41,073564
1389,000000	39,843903
1388,000000	38,841780
1387,000000	38,900548
1386,000000	39,910188
1385,000000	40,929157
1384,000000	41,353374
1383,000000	41,417086
1382,000000	41,483383
1381,000000	41,484184
1380,000000	41,318182
1379,000000	41,170091
1378,000000	41,089280
1377,000000	40,736278
1376,000000	39,958313
1375,000000	39,252138
1374,000000	39,243980
1373,000000	39,921813
1372,000000	40,684014
1371,000000	41,035316
1370,000000	40,981548
1369,000000	40,852353
1368,000000	40,910703
1367,000000	41,063246
1366,000000	40,906151
1365,000000	40,178493
1364,000000	39,189648
1363,000000	38,622808
1362,000000	38,840295
1361,000000	39,570710
1360,000000	40,307337
1359,000000	40,779118
1358,000000	40,975315
1357,000000	40,958788
1356,000000	40,837892
1355,000000	40,768228
1354,000000	40,817683
1353,000000	40,892052
1352,000000	40,881803
1351,000000	40,802200
1350,000000	40,734129
1349,000000	40,709771
1348,000000	40,711530
1347,000000	40,720189
1346,000000	40,720513
1345,000000	40,691760
1344,000000	40,586686
1343,000000	40,301898
1342,000000	39,755547
1341,000000	39,073888
1340,000000	38,607684
1339,000000	38,623813
1338,000000	39,025615
1337,000000	39,506264
1336,000000	39,888265
1335,000000	40,174678
1334,000000	40,358355
1333,000000	40,391472
1332,000000	40,323533
1331,000000	40,276474
1330,000000	40,274874
1329,000000	40,245801
1328,000000	40,181332
1327,000000	40,145660
1326,000000	40,136315
1325,000000	40,085526
1324,000000	39,991554
1323,000000	39,900770
1322,000000	39,777903
1321,000000	39,550389
1320,000000	39,281425
1319,000000	39,138862
1318,000000	39,170480
1317,000000	39,249266
1316,000000	39,255150
1315,000000	39,195965
1314,000000	39,132059
1313,000000	39,099522
1312,000000	39,119847
1311,000000	39,182977
1310,000000	39,215393
1309,000000	39,157747
1308,000000	39,060184
1307,000000	39,012060
1306,000000	39,003524
1305,000000	38,959954
1304,000000	38,881621
1303,000000	38,830137
1302,000000	38,804639
1301,000000	38,747320
1300,000000	38,658536
1299,000000	38,589449
1298,000000	38,539293
1297,000000	38,467177
1296,000000	38,388514
1295,000000	38,349595
1294,000000	38,326484
1293,000000	38,255966
1292,000000	38,145911
1291,000000	38,051604
1290,000000	37,968296
1289,000000	37,858646
1288,000000	37,755322
1287,000000	37,722008
1286,000000	37,731197
1285,000000	37,698061
1284,000000	37,614124
1283,000000	37,539065
1282,000000	37,479695
1281,000000	37,391363
1280,000000	37,282619
1279,000000	37,204126
1278,000000	37,146792
1277,000000	37,055530
1276,000000	36,930948
1275,000000	36,812755
1274,000000	36,685274
1273,000000	36,504433
1272,000000	36,302365
1271,000000	36,152824
1270,000000	36,047746
1269,000000	35,913013
1268,000000	35,733426
1267,000000	35,559079
1266,000000	35,399360
1265,000000	35,217174
1264,000000	35,017960
1263,000000	34,848935
1262,000000	34,718048
1261,000000	34,607657
1260,000000	34,548386
1259,000000	34,581157
1258,000000	34,662889
1257,000000	34,708659
1256,000000	34,710534
1255,000000	34,720311
1254,000000	34,735584
1253,000000	34,705813
1252,000000	34,636200
1251,000000	34,579671
1250,000000	34,536947
1249,000000	34,462500
1248,000000	34,360268
1247,000000	34,275613
1246,000000	34,204612
1245,000000	34,105908
1244,000000	33,992564
1243,000000	33,914949
1242,000000	33,862905
1241,000000	33,780541
1240,000000	33,668224
1239,000000	33,576629
1238,000000	33,507185
1237,000000	33,414452
1236,000000	33,298826
1235,000000	33,204683
1234,000000	33,130376
1233,000000	33,031991
1232,000000	32,911576
1231,000000	32,813468
1230,000000	32,736361
1229,000000	32,635542
1228,000000	32,509027
1227,000000	32,397433
1226,000000	32,303848
1225,000000	32,194563
1224,000000	32,073677
1223,000000	31,974939
1222,000000	31,887149
1221,000000	31,767853
1220,000000	31,624442
1219,000000	31,501977
1218,000000	31,399610
1217,000000	31,277409
1216,000000	31,136538
1215,000000	31,013597
1214,000000	30,905373
1213,000000	30,779182
1212,000000	30,647393
1211,000000	30,551757
1210,000000	30,482701
1209,000000	30,393766
1208,000000	30,285897
1207,000000	30,199390
1206,000000	30,131310
1205,000000	30,041878
1204,000000	29,934175
1203,000000	29,847744
1202,000000	29,779974
1201,000000	29,691894
1200,000000	29,585886
1199,000000	29,500093
1198,000000	29,432127
1197,000000	29,344028
1196,000000	29,237312
1195,000000	29,147715
1194,000000	29,071885
1193,000000	28,973867
1192,000000	28,857735
1191,000000	28,759809
1190,000000	28,675148
1189,000000	28,565977
1188,000000	28,437251
1187,000000	28,329573
1186,000000	28,241402
1185,000000	28,130316
1184,000000	27,987475
1183,000000	27,842519
1182,000000	27,701683
1181,000000	27,551359
1180,000000	27,414607
1179,000000	27,330636
1178,000000	27,281917
1177,000000	27,212635
1176,000000	27,114832
1175,000000	27,027479
1174,000000	26,957390
1173,000000	26,872256
1172,000000	26,768618
1171,000000	26,675463
1170,000000	26,591331
1169,000000	26,485864
1168,000000	26,363046
1167,000000	26,257260
1166,000000	26,168274
1165,000000	26,064145
1164,000000	25,945512
1163,000000	25,843431
1162,000000	25,757131
1161,000000	25,657170
1160,000000	25,546768
1159,000000	25,456940
1158,000000	25,384565
1157,000000	25,297083
1156,000000	25,195120
1155,000000	25,108595
1154,000000	25,035859
1153,000000	24,947861
1152,000000	24,848067
1151,000000	24,766791
1150,000000	24,700289
1149,000000	24,616806
1148,000000	24,518389
1147,000000	24,436693
1146,000000	24,371301
1145,000000	24,292769
1144,000000	24,202282
1143,000000	24,129078
1142,000000	24,071967
1141,000000	24,002387
1140,000000	23,920853
1139,000000	23,852603
1138,000000	23,792243
1137,000000	23,710887
1136,000000	23,613852
1135,000000	23,532840
1134,000000	23,465853
1133,000000	23,381673
1132,000000	23,280093
1131,000000	23,189367
1130,000000	23,109270
1129,000000	23,013521
1128,000000	22,905314
1127,000000	22,813163
1126,000000	22,734855
1125,000000	22,641490
1124,000000	22,533450
1123,000000	22,437770
1122,000000	22,353375
1121,000000	22,254505
1120,000000	22,143764
1119,000000	22,047936
1118,000000	21,963983
1117,000000	21,864313
1116,000000	21,751154
1115,000000	21,652564
1114,000000	21,567933
1113,000000	21,471120
1112,000000	21,363801
1111,000000	21,272053
1110,000000	21,194067
1109,000000	21,103686
1108,000000	21,003643
1107,000000	20,921568
1106,000000	20,857285
1105,000000	20,784545
1104,000000	20,702609
1103,000000	20,634267
1102,000000	20,576585
1101,000000	20,504602
1100,000000	20,420855
1099,000000	20,350802
1098,000000	20,292232
1097,000000	20,219836
1096,000000	20,135627
1095,000000	20,065572
1094,000000	20,008673
1093,000000	19,940428
1092,000000	19,862275
1091,000000	19,798864
1090,000000	19,748566
1089,000000	19,686599
1088,000000	19,614149
1087,000000	19,555341
1086,000000	19,508318
1085,000000	19,447534
1084,000000	19,373036
1083,000000	19,309327
1082,000000	19,258744
1081,000000	19,201771
1080,000000	19,141685
1079,000000	19,100493
1078,000000	19,074704
1077,000000	19,040587
1076,000000	19,000950
1075,000000	18,980274
1074,000000	18,976229
1073,000000	18,963020
1072,000000	18,939312
1071,000000	18,927519
1070,000000	18,927558
1069,000000	18,917984
1068,000000	18,900085
1067,000000	18,896507
1066,000000	18,906515
1065,000000	18,907954
1064,000000	18,900552
1063,000000	18,904601
1062,000000	18,918404
1061,000000	18,920436
1060,000000	18,911108
1059,000000	18,908820
1058,000000	18,906784
1057,000000	18,874750
1056,000000	18,804218
1055,000000	18,710580
1054,000000	18,598851
1053,000000	18,468986
1052,000000	18,353193
1051,000000	18,301300
1050,000000	18,330274
1049,000000	18,421664
1048,000000	18,561495
1047,000000	18,741763
1046,000000	18,928136
1045,000000	19,076725
1044,000000	19,181998
1043,000000	19,270526
1042,000000	19,349926
1041,000000	19,406490
1040,000000	19,445890
1039,000000	19,492287
1038,000000	19,546946
1037,000000	19,589437
1036,000000	19,619725
1035,000000	19,657860
1034,000000	19,704173
1033,000000	19,739677
1032,000000	19,765374
1031,000000	19,800532
1030,000000	19,844367
1029,000000	19,877563
1028,000000	19,901523
1027,000000	19,935869
1026,000000	19,979814
1025,000000	20,013859
1024,000000	20,039033
1023,000000	20,075432
1022,000000	20,123474
1021,000000	20,164883
1020,000000	20,200262
1019,000000	20,248507
1018,000000	20,308853
1017,000000	20,362596
1016,000000	20,409946
1015,000000	20,469522
1014,000000	20,541185
1013,000000	20,606751
1012,000000	20,665768
1011,000000	20,734707
1010,000000	20,811579
1009,000000	20,877463
1008,000000	20,932185
1007,000000	20,992455
1006,000000	21,056784
1005,000000	21,106951
1004,000000	21,143624
1003,000000	21,184403
1002,000000	21,228745
1001,000000	21,258920
1000,000000	21,275573
999,000000	21,296107
998,000000	21,320257
997,000000	21,331072
996,000000	21,329069
995,000000	21,331509
994,000000	21,337974
993,000000	21,332075
992,000000	21,314757
991,000000	21,303090
990,000000	21,296170
989,000000	21,276894
988,000000	21,245859
987,000000	21,220757
986,000000	21,201984
985,000000	21,172941
984,000000	21,133301
983,000000	21,099356
982,000000	21,071879
981,000000	21,035534
980,000000	20,990727
979,000000	20,952731
978,000000	20,920777
977,000000	20,878543
976,000000	20,826102
975,000000	20,779270
974,000000	20,738591
973,000000	20,689358
972,000000	20,632194
971,000000	20,582241
970,000000	20,538649
969,000000	20,485666
968,000000	20,423201
967,000000	20,366818
966,000000	20,317051
965,000000	20,259861
964,000000	20,195595
963,000000	20,138550
962,000000	20,087499
961,000000	20,027228
960,000000	19,958211
959,000000	19,895942
958,000000	19,841269
957,000000	19,780373
956,000000	19,713416
955,000000	19,653772
954,000000	19,600464
953,000000	19,539559
952,000000	19,472764
951,000000	19,414945
950,000000	19,365275
949,000000	19,308517
948,000000	19,244756
947,000000	19,188481
946,000000	19,139768
945,000000	19,084660
944,000000	19,023295
943,000000	18,969495
942,000000	18,922600
941,000000	18,868396
940,000000	18,806586
939,000000	18,750662
938,000000	18,700420
937,000000	18,643042
936,000000	18,579649
935,000000	18,524037
934,000000	18,475230
933,000000	18,418926
932,000000	18,355203
931,000000	18,297801
930,000000	18,247015
929,000000	18,189750
928,000000	18,126359
927,000000	18,069888
926,000000	18,020063
925,000000	17,963531
924,000000	17,900287
923,000000	17,842978
922,000000	17,791331
921,000000	17,732586
920,000000	17,666920
919,000000	17,606607
918,000000	17,550327
917,000000	17,484252
916,000000	17,407858
915,000000	17,334274
914,000000	17,264968
913,000000	17,189520
912,000000	17,109184
911,000000	17,036650
910,000000	16,972122
909,000000	16,904291
908,000000	16,833889
907,000000	16,772631
906,000000	16,719465
905,000000	16,661783
904,000000	16,599411
903,000000	16,543634
902,000000	16,493847
901,000000	16,438139
900,000000	16,376997
899,000000	16,322398
898,000000	16,274899
897,000000	16,223681
896,000000	16,168779
895,000000	16,120105
894,000000	16,075715
893,000000	16,023501
892,000000	15,963422
891,000000	15,906180
890,000000	15,850649
889,000000	15,785443
888,000000	15,710881
887,000000	15,637830
886,000000	15,565565
885,000000	15,483119
884,000000	15,391393
883,000000	15,302454
882,000000	15,217748
881,000000	15,128913
880,000000	15,039469
879,000000	14,964142
878,000000	14,906946
877,000000	14,860196
876,000000	14,824030
875,000000	14,806544
874,000000	14,804989
873,000000	14,806868
872,000000	14,810172
871,000000	14,822038
870,000000	14,839528
869,000000	14,850634
868,000000	14,853999
867,000000	14,858211
866,000000	14,862336
865,000000	14,856398
864,000000	14,840278
863,000000	14,823860
862,000000	14,808325
861,000000	14,786108
860,000000	14,757904
859,000000	14,732146
858,000000	14,707966
857,000000	14,676443
856,000000	14,638223
855,000000	14,602896
854,000000	14,571785
853,000000	14,537963
852,000000	14,502312
851,000000	14,472806
850,000000	14,449054
849,000000	14,423434
848,000000	14,396538
847,000000	14,375337
846,000000	14,357672
845,000000	14,334261
844,000000	14,305042
843,000000	14,277932
842,000000	14,252884
841,000000	14,222396
840,000000	14,186335
839,000000	14,151040
838,000000	14,114959
837,000000	14,069568
836,000000	14,013257
835,000000	13,950536
834,000000	13,878505
833,000000	13,789066
832,000000	13,682685
831,000000	13,567450
830,000000	13,445959
829,000000	13,316515
828,000000	13,186269
827,000000	13,070299
826,000000	12,979296
825,000000	12,918635
824,000000	12,897271
823,000000	12,921990
822,000000	12,984279
821,000000	13,063667
820,000000	13,143591
819,000000	13,215467
818,000000	13,270985
817,000000	13,304219
816,000000	13,319547
815,000000	13,326496
814,000000	13,327158
813,000000	13,318044
812,000000	13,300898
811,000000	13,281404
810,000000	13,259834
809,000000	13,232557
808,000000	13,201142
807,000000	13,170536
806,000000	13,140634
805,000000	13,108561
804,000000	13,076685
803,000000	13,049975
802,000000	13,027805
801,000000	13,006531
800,000000	12,987463
799,000000	12,974753
798,000000	12,967943
797,000000	12,963864
796,000000	12,963495
795,000000	12,969863
794,000000	12,981909
793,000000	12,996388
792,000000	13,013288
791,000000	13,033941
790,000000	13,056287
789,000000	13,076979
788,000000	13,095384
787,000000	13,111808
786,000000	13,125104
785,000000	13,135302
784,000000	13,144792
783,000000	13,154049
782,000000	13,160296
781,000000	13,162390
780,000000	13,162560
779,000000	13,161642
778,000000	13,157883
777,000000	13,151799
776,000000	13,146521
775,000000	13,142119
774,000000	13,135189
773,000000	13,124869
772,000000	13,113561
771,000000	13,101502
770,000000	13,086756
769,000000	13,070365
768,000000	13,055241
767,000000	13,040614
766,000000	13,023629
765,000000	13,005078
764,000000	12,987242
763,000000	12,968445
762,000000	12,946465
761,000000	12,924373
760,000000	12,905817
759,000000	12,888080
758,000000	12,867012
757,000000	12,844493
756,000000	12,823555
755,000000	12,801517
754,000000	12,775836
753,000000	12,750515
752,000000	12,728574
751,000000	12,705294
750,000000	12,677351
749,000000	12,650000
748,000000	12,626525
747,000000	12,600424
746,000000	12,567821
745,000000	12,536019
744,000000	12,509458
743,000000	12,480130
742,000000	12,443873
741,000000	12,411639
740,000000	12,390917
739,000000	12,371108
738,000000	12,341921
737,000000	12,310640
736,000000	12,285162
735,000000	12,257556
734,000000	12,221240
733,000000	12,186653
732,000000	12,161300
731,000000	12,133877
730,000000	12,096700
729,000000	12,062429
728,000000	12,038802
727,000000	12,011814
726,000000	11,975383
725,000000	11,945178
724,000000	11,915392
723,000000	11,839282
722,000000	11,699033
721,000000	11,563460
720,000000	11,522899
719,000000	11,580009
718,000000	11,654530
717,000000	11,684517
716,000000	11,672703
715,000000	11,643533
714,000000	11,606714
713,000000	11,568778
712,000000	11,537095
711,000000	11,504995
710,000000	11,460697
709,000000	11,410015
708,000000	11,364483
707,000000	11,317506
706,000000	11,259132
705,000000	11,200460
704,000000	11,153905
703,000000	11,106374
702,000000	11,042194
701,000000	10,971859
700,000000	10,907592
699,000000	10,834911
698,000000	10,742521
697,000000	10,650540
696,000000	10,573997
695,000000	10,490134
694,000000	10,380752
693,000000	10,267238
692,000000	10,163484
691,000000	10,039627
690,000000	9,882861
689,000000	9,744027
688,000000	9,666287
687,000000	9,619635
686,000000	9,565084
685,000000	9,525752
684,000000	9,522804
683,000000	9,510068
682,000000	9,451895
681,000000	9,399662
680,000000	9,398749
679,000000	9,398925
678,000000	9,355118
677,000000	9,327772
676,000000	9,367104
675,000000	9,405530
674,000000	9,395112
673,000000	9,385819
672,000000	9,262429
671,000000	8,610247
670,000000	7,258907
669,000000	5,881430
668,000000	5,572917
667,000000	6,648561
666,000000	8,224691
665,000000	9,216845
664,000000	9,397515
663,000000	9,261481
662,000000	9,177682
661,000000	9,103646
660,000000	8,968562
659,000000	8,867104
658,000000	8,845823
657,000000	8,808839
656,000000	8,716256
655,000000	8,652711
654,000000	8,653057
653,000000	8,636898
652,000000	8,565030
651,000000	8,500901
650,000000	8,481115
649,000000	8,464699
648,000000	8,442094
647,000000	8,462668
646,000000	8,522145
645,000000	8,547260
644,000000	8,519063
643,000000	8,501221
642,000000	8,517433
641,000000	8,515939
640,000000	8,477192
639,000000	8,450635
638,000000	8,452787
637,000000	8,434303
636,000000	8,379559
635,000000	8,341204
634,000000	8,342544
633,000000	8,335713
632,000000	8,293862
631,000000	8,254963
630,000000	8,241012
629,000000	8,213274
628,000000	8,149050
627,000000	8,085493
626,000000	8,050856
625,000000	8,019493
624,000000	7,971925
623,000000	7,932819
622,000000	7,910544
621,000000	7,861331
620,000000	7,754467
619,000000	7,627166
618,000000	7,536276
617,000000	7,497186
616,000000	7,492871
615,000000	7,502842
614,000000	7,500591
613,000000	7,462330
612,000000	7,397788
611,000000	7,339516
610,000000	7,291840
609,000000	7,229304
608,000000	7,149358
607,000000	7,080827
606,000000	7,034624
605,000000	6,990719
604,000000	6,942011
603,000000	6,903638
602,000000	6,874369
601,000000	6,833774
600,000000	6,785018
599,000000	6,752730
598,000000	6,734683
597,000000	6,701135
596,000000	6,646364
595,000000	6,593014
594,000000	6,543306
593,000000	6,478179
592,000000	6,407373
591,000000	6,367050
590,000000	6,357135
589,000000	6,335245
588,000000	6,281255
587,000000	6,220570
586,000000	6,171712
585,000000	6,120722
584,000000	6,059212
583,000000	6,001468
582,000000	5,952042
581,000000	5,897681
580,000000	5,839441
579,000000	5,791058
578,000000	5,744056
577,000000	5,678596
576,000000	5,610239
575,000000	5,574334
574,000000	5,563580
573,000000	5,531795
572,000000	5,466140
571,000000	5,400527
570,000000	5,351930
569,000000	5,300273
568,000000	5,240494
567,000000	5,198299
566,000000	5,177204
565,000000	5,145395
564,000000	5,090837
563,000000	5,040848
562,000000	5,008443
561,000000	4,970855
560,000000	4,917601
559,000000	4,871230
558,000000	4,840908
557,000000	4,803253
556,000000	4,749462
555,000000	4,704106
554,000000	4,677793
553,000000	4,645094
552,000000	4,592468
551,000000	4,542496
550,000000	4,510264
549,000000	4,476601
548,000000	4,428566
547,000000	4,385482
546,000000	4,362100
545,000000	4,342898
544,000000	4,314205
543,000000	4,286809
542,000000	4,266308
541,000000	4,237475
540,000000	4,195703
539,000000	4,160218
538,000000	4,137578
537,000000	4,108721
536,000000	4,066985
535,000000	4,032930
534,000000	4,013803
533,000000	3,987732
532,000000	3,945676
531,000000	3,909010
530,000000	3,884726
529,000000	3,842368
528,000000	3,763754
527,000000	3,679569
526,000000	3,630365
525,000000	3,616587
524,000000	3,611912
523,000000	3,598746
522,000000	3,568731
521,000000	3,514976
520,000000	3,446251
519,000000	3,388674
518,000000	3,356716
517,000000	3,341559
516,000000	3,335223
515,000000	3,340071
514,000000	3,346170
513,000000	3,332199
512,000000	3,299042
511,000000	3,271536
510,000000	3,254977
509,000000	3,226862
508,000000	3,182676
507,000000	3,150865
506,000000	3,142684
505,000000	3,126852
504,000000	3,079979
503,000000	3,026913
502,000000	3,003742
501,000000	3,006906
500,000000	3,008672
499,000000	2,998286
498,000000	2,981297
497,000000	2,957348
496,000000	2,923440
495,000000	2,885343
494,000000	2,847083
493,000000	2,803535
492,000000	2,756916
491,000000	2,722211
490,000000	2,702811
489,000000	2,680021
488,000000	2,639293
487,000000	2,589508
486,000000	2,543618
485,000000	2,500814
484,000000	2,459362
483,000000	2,426820
482,000000	2,404360
481,000000	2,379179
480,000000	2,343978
479,000000	2,307363
478,000000	2,275833
477,000000	2,241554
476,000000	2,196067
475,000000	2,140941
474,000000	2,082544
473,000000	2,031828
472,000000	2,006584
471,000000	2,009942
470,000000	2,011329
469,000000	1,980282
468,000000	1,936866
467,000000	1,929684
466,000000	1,962361
465,000000	1,981977
464,000000	1,951265
463,000000	1,892671
462,000000	1,843399
461,000000	1,806121
460,000000	1,766556
459,000000	1,732883
458,000000	1,727454
457,000000	1,752384
456,000000	1,784284
455,000000	1,796754
454,000000	1,781458
453,000000	1,753141
452,000000	1,738191
451,000000	1,748412
450,000000	1,763597
449,000000	1,757201
448,000000	1,733910
447,000000	1,716977
446,000000	1,705005
445,000000	1,674241
444,000000	1,624908
443,000000	1,589047
442,000000	1,585416
441,000000	1,597072
440,000000	1,601760
439,000000	1,594641
438,000000	1,572161
437,000000	1,528860
436,000000	1,479750
435,000000	1,454029
434,000000	1,454763
433,000000	1,453312
432,000000	1,431657
431,000000	1,402158
430,000000	1,377705
429,000000	1,352886
428,000000	1,322897
427,000000	1,291856
426,000000	1,256957
425,000000	1,212223
424,000000	1,171004
423,000000	1,147565
422,000000	1,116669
421,000000	1,038116
420,000000	0,930458
419,000000	0,869632
418,000000	0,894835
417,000000	0,958931
416,000000	0,995013
415,000000	0,990142
414,000000	0,967514
413,000000	0,938245
412,000000	0,904750
411,000000	0,880619
410,000000	0,871485
409,000000	0,857683
408,000000	0,823626
407,000000	0,781613
406,000000	0,747154
405,000000	0,716470
404,000000	0,685080
403,000000	0,663403
402,000000	0,650721
401,000000	0,620402
400,000000	0,557727
399,000000	0,487897
398,000000	0,444098
397,000000	0,429752
396,000000	0,429366
395,000000	0,436265
394,000000	0,447140
393,000000	0,448691
392,000000	0,435941
391,000000	0,421744
390,000000	0,413521
389,000000	0,400011
388,000000	0,372201
387,000000	0,339189
386,000000	0,310038
385,000000	0,283233
384,000000	0,263214
383,000000	0,263960
382,000000	0,280524
381,000000	0,282646
380,000000	0,255569
379,000000	0,218498
378,000000	0,189990
377,000000	0,167386
376,000000	0,146408
375,000000	0,140394
374,000000	0,154867
373,000000	0,164026
372,000000	0,146075
371,000000	0,119086
370,000000	0,112460
369,000000	0,119071
368,000000	0,114482
367,000000	0,097884
366,000000	0,090334
365,000000	0,098136
364,000000	0,097677
363,000000	0,080907
362,000000	0,068075
361,000000	0,052224
360,000000	0,049856
359,000000	0,063189
358,000000	0,053430
357,000000	0,014785
356,000000	0,028039
355,000000	0,033676
354,000000	0,032472
353,000000	0,077129
352,000000	0,070092
351,000000	0,038156
350,000000	0,057749
349,000000	0,065707
348,000000	0,059487
347,000000	0,069729
346,000000	0,087541
345,000000	0,084855
344,000000	0,076992
343,000000	0,088047
342,000000	0,077914
341,000000	0,048305
340,000000	0,048530
339,000000	0,053192
338,000000	0,049466
337,000000	0,049227
336,000000	0,037516
335,000000	0,027408
334,000000	0,019582
333,000000	0,009024
332,000000	0,007666
331,000000	0,004015
330,000000	0,010913
329,000000	0,019070
328,000000	0,017700
327,000000	0,017150
326,000000	0,018244
325,000000	0,018378
324,000000	0,007638
323,000000	0,009843
322,000000	0,004108
321,000000	0,017174
320,000000	0,023783
319,000000	0,023031
318,000000	0,019471
317,000000	0,009244
316,000000	0,006468
315,000000	0,021390
314,000000	0,020425
313,000000	0,015613
312,000000	0,013663
311,000000	0,012486
310,000000	0,016366
309,000000	0,019865
308,000000	0,021172
307,000000	0,025815
306,000000	0,030469
305,000000	0,024740
304,000000	0,011017
303,000000	0,009275
302,000000	0,022118
301,000000	0,029340
300,000000	0,023521
